Frequence;Amplitude
0.0;10.433
0.4;8.104
0.8;5.101
1.3;3.309
1.7;2.301
2.1;1.794
2.5;1.519
2.9;1.356
3.3;1.183
3.8;0.959
4.2;0.838
4.6;0.589
5.0;0.553
5.4;0.529
5.8;0.479
6.3;0.535
6.7;0.487
7.1;0.493
7.5;0.454
7.9;0.384
8.3;0.389
8.8;0.411
9.2;0.391
9.6;0.313
10.0;0.185
10.4;0.186
10.8;0.294
11.3;0.356
11.7;0.435
12.1;0.542
12.5;0.751
12.9;0.85
13.3;0.95
13.8;0.972
14.2;0.95
14.6;0.917
15.0;0.79
15.4;0.735
15.8;0.74
16.3;0.738
16.7;0.779
17.1;0.903
17.5;0.899
17.9;0.838
18.3;0.735
18.8;0.557
19.2;0.341
19.6;0.286
20.0;0.417
20.4;0.513
20.8;0.52
21.3;0.494
21.7;0.357
22.1;0.518
22.5;0.873
22.9;1.235
23.3;1.441
23.8;1.536
24.2;1.524
24.6;1.393
25.0;1.268
25.4;1.108
25.8;1.149
26.3;1.222
26.7;1.272
27.1;1.363
27.5;1.392
27.9;1.31
28.3;1.117
28.8;0.768
29.2;0.404
29.6;0.271
30.0;0.577
30.4;1.015
30.8;1.296
31.3;1.448
31.7;1.448
32.1;1.365
32.5;1.223
32.9;0.983
33.3;0.742
33.8;0.535
34.2;0.454
34.6;0.38
35.0;0.374
35.4;0.408
35.8;0.455
36.3;0.544
36.7;0.623
37.1;0.765
37.5;0.919
37.9;1.113
38.3;1.191
38.8;1.301
39.2;1.519
39.6;1.86
40.0;2.246
40.4;2.626
40.8;2.878
41.3;2.911
41.7;2.756
42.1;2.389
42.5;1.844
42.9;1.366
43.3;0.931
43.8;0.542
44.2;0.328
44.6;0.291
45.0;0.276
45.4;0.241
45.8;0.154
46.3;0.117
46.7;0.262
47.1;0.452
47.5;0.616
47.9;0.694
48.3;0.685
48.8;0.589
49.2;0.456
49.6;0.421
50.0;0.648
50.4;0.562
50.8;0.684
51.3;0.685
51.7;0.716
52.1;0.713
52.5;0.688
52.9;0.695
53.3;0.617
53.8;0.537
54.2;0.461
54.6;0.49
55.0;0.59
55.4;0.625
55.8;0.724
56.3;0.776
56.7;0.773
57.1;0.749
57.5;0.728
57.9;0.782
58.3;0.869
58.8;0.966
59.2;1.032
59.6;0.907
60.0;0.772
60.4;0.545
60.8;0.366
61.3;0.384
61.7;0.671
62.1;0.922
62.5;1.066
62.9;1.061
63.3;0.981
63.8;0.691
64.2;0.469
64.6;0.293
65.0;0.27
65.4;0.393
65.8;0.468
66.3;0.481
66.7;0.43
67.1;0.357
67.5;0.303
67.9;0.373
68.3;0.403
68.8;0.485
69.2;0.512
69.6;0.496
70.0;0.494
70.4;0.508
70.8;0.523
71.3;0.552
71.7;0.554
72.1;0.525
72.5;0.577
72.9;0.623
73.3;0.598
73.8;0.623
74.2;0.598
74.6;0.57
75.0;0.632
75.4;0.921
75.8;1.485
76.3;2.227
76.7;3.125
77.1;4.123
77.5;5.092
77.9;5.88
78.3;6.394
78.8;6.582
79.2;6.408
79.6;5.892
80.0;5.183
80.4;4.432
80.8;3.78
81.3;3.508
81.7;3.629
82.1;3.944
82.5;4.232
82.9;4.544
83.3;5.006
83.8;5.764
84.2;6.808
84.6;7.978
85.0;9.245
85.4;10.174
85.8;10.812
86.3;11.036
86.7;10.908
87.1;10.415
87.5;9.674
87.9;8.727
88.3;7.752
88.8;6.744
89.2;5.975
89.6;5.231
90.0;4.614
90.4;4.155
90.8;3.695
91.3;3.209
91.7;2.65
92.1;1.978
92.5;1.351
92.9;0.866
93.3;0.898
93.8;1.316
94.2;1.732
94.6;1.961
95.0;2.098
95.4;2.044
95.8;1.933
96.3;1.729
96.7;1.525
97.1;1.362
97.5;1.221
97.9;1.085
98.3;0.925
98.8;0.684
99.2;0.387
99.6;0.353
100.0;0.742
100.4;1.195
100.8;1.561
101.3;1.821
101.7;1.949
102.1;2.125
102.5;2.265
102.9;2.422
103.3;2.572
103.8;2.705
104.2;2.819
104.6;2.939
105.0;3.09
105.4;3.311
105.8;3.53
106.3;3.797
106.7;3.968
107.1;4.052
107.5;4.046
107.9;3.968
108.3;3.847
108.8;3.719
109.2;3.622
109.6;3.602
110.0;3.629
110.4;3.791
110.8;4.001
111.3;4.227
111.7;4.466
112.1;4.73
112.5;5.004
112.9;5.247
113.3;5.446
113.8;5.554
114.2;5.444
114.6;5.091
115.0;4.713
115.4;4.295
115.8;3.979
116.3;3.837
116.7;3.862
117.1;4.073
117.5;4.388
117.9;4.723
118.3;5.049
118.8;5.207
119.2;5.397
119.6;5.549
120.0;5.762
120.4;6.116
120.8;6.646
121.3;7.288
121.7;7.993
122.1;8.723
122.5;9.361
122.9;9.796
123.3;10.044
123.8;9.93
124.2;9.538
124.6;8.973
125.0;8.27
125.4;7.655
125.8;7.279
126.3;7.156
126.7;7.131
127.1;7.206
127.5;7.093
127.9;7.007
128.3;6.898
128.8;6.731
129.2;6.395
129.6;5.863
130.0;5.083
130.4;4.181
130.8;3.186
131.3;2.382
131.7;2.103
132.1;2.167
132.5;2.311
132.9;2.415
133.3;2.453
133.8;2.456
134.2;2.511
134.6;2.591
135.0;2.712
135.4;2.89
135.8;3.063
136.3;3.258
136.7;3.277
137.1;3.047
137.5;2.629
137.9;1.984
138.3;1.369
138.8;1.097
139.2;1.319
139.6;1.755
140.0;2.031
140.4;2.437
140.8;2.785
141.3;3.032
141.7;3.076
142.1;2.713
142.5;1.963
142.9;0.865
143.3;0.445
143.8;1.726
144.2;2.853
144.6;3.459
145.0;3.682
145.4;3.523
145.8;3.124
146.3;2.706
146.7;2.403
147.1;2.223
147.5;2.117
147.9;2.142
148.3;2.431
148.8;2.93
149.2;3.448
149.6;3.881
150.0;4.727
150.4;4.019
150.8;3.957
151.3;3.921
151.7;3.992
152.1;4.29
152.5;4.735
152.9;5.095
153.3;5.369
153.8;5.5
154.2;5.367
154.6;5.075
155.0;4.567
155.4;3.935
155.8;3.282
156.3;2.668
156.7;2.222
157.1;2.112
157.5;2.014
157.9;1.881
158.3;1.682
158.8;1.457
159.2;1.257
159.6;1.124
160.0;1.146
160.4;1.224
160.8;1.333
161.3;1.589
161.7;1.74
162.1;1.828
162.5;1.877
162.9;1.902
163.3;1.908
163.8;1.924
164.2;1.959
164.6;1.991
165.0;2.032
165.4;1.949
165.8;1.924
166.3;1.845
166.7;1.776
167.1;1.735
167.5;1.786
167.9;1.873
168.3;1.923
168.8;1.948
169.2;1.955
169.6;1.86
170.0;1.955
170.4;2.112
170.8;2.366
171.3;2.698
171.7;3.049
172.1;3.375
172.5;3.602
172.9;3.739
173.3;3.836
173.8;3.885
174.2;3.798
174.6;3.679
175.0;3.534
175.4;3.371
175.8;3.19
176.3;3.02
176.7;2.833
177.1;2.652
177.5;2.498
177.9;2.432
178.3;2.288
178.8;2.292
179.2;2.325
179.6;2.395
180.0;2.456
180.4;2.489
180.8;2.532
181.3;2.609
181.7;2.757
182.1;2.967
182.5;3.179
182.9;3.527
183.3;3.868
183.8;4.22
184.2;4.533
184.6;4.778
185.0;4.942
185.4;5.017
185.8;4.99
186.3;4.905
186.7;4.902
187.1;4.77
187.5;4.709
187.9;4.686
188.3;4.624
188.8;4.468
189.2;4.178
189.6;3.805
190.0;3.505
190.4;3.444
190.8;3.694
191.3;3.905
191.7;4.028
192.1;3.941
192.5;3.672
192.9;3.282
193.3;2.935
193.8;2.694
194.2;2.607
194.6;2.697
195.0;2.801
195.4;2.971
195.8;3.145
196.3;3.26
196.7;3.332
197.1;3.348
197.5;3.344
197.9;3.346
198.3;3.348
198.8;3.335
199.2;3.307
199.6;3.413
200.0;3.524
200.4;3.573
200.8;3.672
201.3;3.752
201.7;3.763
202.1;3.74
202.5;3.622
202.9;3.444
203.3;3.193
203.8;3.049
204.2;2.924
204.6;2.867
205.0;2.862
205.4;2.866
205.8;2.854
206.3;2.801
206.7;2.707
207.1;2.58
207.5;2.425
207.9;2.316
208.3;2.136
208.8;1.997
209.2;1.929
209.6;1.922
210.0;1.98
210.4;2.081
210.8;2.183
211.3;2.255
211.7;2.292
212.1;2.363
212.5;2.265
212.9;2.134
213.3;1.971
213.8;1.813
214.2;1.655
214.6;1.529
215.0;1.44
215.4;1.387
215.8;1.343
216.3;1.267
216.7;1.226
217.1;1.149
217.5;1.09
217.9;1.016
218.3;0.971
218.8;0.949
219.2;0.918
219.6;0.893
220.0;0.855
220.4;0.866
220.8;0.708
221.3;0.616
221.7;0.538
222.1;0.426
222.5;0.327
222.9;0.266
223.3;0.204
223.8;0.153
224.2;0.124
224.6;0.182
225.0;0.127
225.4;0.164
225.8;0.171
226.3;0.214
226.7;0.23
227.1;0.224
227.5;0.214
227.9;0.194
228.3;0.175
228.8;0.23
229.2;0.238
229.6;0.323
230.0;0.412
230.4;0.499
230.8;0.558
231.3;0.596
231.7;0.616
232.1;0.593
232.5;0.523
232.9;0.427
233.3;0.419
233.8;0.344
234.2;0.33
234.6;0.349
235.0;0.37
235.4;0.418
235.8;0.47
236.3;0.528
236.7;0.582
237.1;0.649
237.5;0.612
237.9;0.656
238.3;0.616
238.8;0.527
239.2;0.415
239.6;0.281
240.0;0.286
240.4;0.421
240.8;0.6
241.3;0.759
241.7;0.756
242.1;0.863
242.5;0.891
242.9;0.88
243.3;0.88
243.8;0.878
244.2;0.885
244.6;0.881
245.0;0.875
245.4;0.882
245.8;0.86
246.3;0.855
246.7;0.779
247.1;0.714
247.5;0.609
247.9;0.528
248.3;0.488
248.8;0.464
249.2;0.495
249.6;0.526
250.0;0.494
250.4;0.687
250.8;0.755
251.3;0.781
251.7;0.774
252.1;0.764
252.5;0.716
252.9;0.684
253.3;0.661
253.8;0.665
254.2;0.685
254.6;0.692
255.0;0.764
255.4;0.82
255.8;0.844
256.3;0.821
256.7;0.795
257.1;0.752
257.5;0.716
257.9;0.693
258.3;0.71
258.8;0.744
259.2;0.714
259.6;0.702
260.0;0.688
260.4;0.677
260.8;0.656
261.3;0.632
261.7;0.586
262.1;0.528
262.5;0.477
262.9;0.489
263.3;0.453
263.8;0.427
264.2;0.392
264.6;0.347
265.0;0.325
265.4;0.322
265.8;0.316
266.3;0.325
266.7;0.35
267.1;0.34
267.5;0.321
267.9;0.307
268.3;0.306
268.8;0.309
269.2;0.329
269.6;0.364
270.0;0.4
270.4;0.42
270.8;0.426
271.3;0.4
271.7;0.479
272.1;0.476
272.5;0.5
272.9;0.549
273.3;0.637
273.8;0.765
274.2;0.926
274.6;1.104
275.0;1.284
275.4;1.458
275.8;1.617
276.3;1.777
276.7;1.918
277.1;2.025
277.5;2.145
277.9;2.209
278.3;2.254
278.8;2.294
279.2;2.277
279.6;2.193
280.0;2.215
280.4;2.089
280.8;1.994
281.3;1.893
281.7;1.81
282.1;1.738
282.5;1.676
282.9;1.657
283.3;1.63
283.8;1.607
284.2;1.618
284.6;1.566
285.0;1.554
285.4;1.524
285.8;1.505
286.3;1.46
286.7;1.41
287.1;1.366
287.5;1.289
287.9;1.267
288.3;1.242
288.8;1.235
289.2;1.23
289.6;1.241
290.0;1.234
290.4;1.217
290.8;1.179
291.3;1.137
291.7;1.079
292.1;1.023
292.5;0.953
292.9;0.939
293.3;0.908
293.8;0.879
294.2;0.797
294.6;0.72
295.0;0.593
295.4;0.453
295.8;0.302
296.3;0.175
296.7;0.139
297.1;0.276
297.5;0.43
297.9;0.573
298.3;0.71
298.8;0.814
299.2;0.915
299.6;0.985
300.0;1.046
300.4;1.096
300.8;1.14
301.3;1.12
301.7;1.022
302.1;0.912
302.5;0.817
302.9;0.756
303.3;0.782
303.8;0.882
304.2;1.027
304.6;1.177
305.0;1.357
305.4;1.384
305.8;1.42
306.3;1.421
306.7;1.352
307.1;1.239
307.5;1.117
307.9;0.985
308.3;0.865
308.8;0.77
309.2;0.713
309.6;0.585
310.0;0.543
310.4;0.484
310.8;0.421
311.3;0.348
311.7;0.31
312.1;0.271
312.5;0.265
312.9;0.304
313.3;0.37
313.8;0.387
314.2;0.484
314.6;0.506
315.0;0.485
315.4;0.441
315.8;0.356
316.3;0.296
316.7;0.29
317.1;0.383
317.5;0.511
317.9;0.615
318.3;0.81
318.8;0.931
319.2;1.005
319.6;1.091
320.0;1.159
320.4;1.2
320.8;1.242
321.3;1.265
321.7;1.286
322.1;1.33
322.5;1.281
322.9;1.256
323.3;1.251
323.8;1.278
324.2;1.286
324.6;1.314
325.0;1.337
325.4;1.368
325.8;1.4
326.3;1.419
326.7;1.594
327.1;1.698
327.5;1.829
327.9;1.974
328.3;2.147
328.8;2.315
329.2;2.477
329.6;2.614
330.0;2.676
330.4;2.651
330.8;2.604
331.3;2.437
331.7;2.204
332.1;1.956
332.5;1.724
332.9;1.59
333.3;1.575
333.8;1.651
334.2;1.801
334.6;1.926
335.0;1.934
335.4;1.999
335.8;1.961
336.3;1.901
336.7;1.783
337.1;1.654
337.5;1.468
337.9;1.311
338.3;1.156
338.8;1.023
339.2;0.833
339.6;0.797
340.0;0.726
340.4;0.652
340.8;0.565
341.3;0.521
341.7;0.47
342.1;0.421
342.5;0.416
342.9;0.394
343.3;0.39
343.8;0.381
344.2;0.401
344.6;0.396
345.0;0.415
345.4;0.412
345.8;0.392
346.3;0.382
346.7;0.359
347.1;0.361
347.5;0.359
347.9;0.425
348.3;0.452
348.8;0.515
349.2;0.555
349.6;0.599
350.0;0.608
350.4;0.65
350.8;0.642
351.3;0.625
351.7;0.572
352.1;0.514
352.5;0.434
352.9;0.377
353.3;0.308
353.8;0.282
354.2;0.278
354.6;0.323
355.0;0.389
355.4;0.435
355.8;0.496
356.3;0.559
356.7;0.552
357.1;0.565
357.5;0.577
357.9;0.571
358.3;0.571
358.8;0.55
359.2;0.535
359.6;0.524
360.0;0.535
360.4;0.54
360.8;0.504
361.3;0.465
361.7;0.406
362.1;0.326
362.5;0.249
362.9;0.153
363.3;0.071
363.8;0.024
364.2;0.104
364.6;0.179
365.0;0.257
365.4;0.297
365.8;0.336
366.3;0.36
366.7;0.364
367.1;0.374
367.5;0.35
367.9;0.336
368.3;0.311
368.8;0.259
369.2;0.231
369.6;0.201
370.0;0.183
370.4;0.18
370.8;0.181
371.3;0.208
371.7;0.263
372.1;0.334
372.5;0.406
372.9;0.493
373.3;0.574
373.8;0.566
374.2;0.54
374.6;0.52
375.0;0.475
375.4;0.462
375.8;0.474
376.3;0.495
376.7;0.505
377.1;0.482
377.5;0.499
377.9;0.46
378.3;0.423
378.8;0.392
379.2;0.37
379.6;0.377
380.0;0.381
380.4;0.379
380.8;0.389
381.3;0.368
381.7;0.364
382.1;0.332
382.5;0.313
382.9;0.313
383.3;0.306
383.8;0.328
384.2;0.343
384.6;0.364
385.0;0.377
385.4;0.383
385.8;0.381
386.3;0.341
386.7;0.304
387.1;0.277
387.5;0.266
387.9;0.247
388.3;0.22
388.8;0.198
389.2;0.152
389.6;0.094
390.0;0.045
390.4;0.018
390.8;0.092
391.3;0.137
391.7;0.191
392.1;0.241
392.5;0.295
392.9;0.314
393.3;0.347
393.8;0.365
394.2;0.378
394.6;0.369
395.0;0.341
395.4;0.317
395.8;0.281
396.3;0.274
396.7;0.248
397.1;0.227
397.5;0.201
397.9;0.185
398.3;0.176
398.8;0.206
399.2;0.267
399.6;0.323
400.0;0.396
400.4;0.442
400.8;0.497
401.3;0.513
401.7;0.532
402.1;0.522
402.5;0.5
402.9;0.518
403.3;0.5
403.8;0.489
404.2;0.486
404.6;0.49
405.0;0.498
405.4;0.532
405.8;0.564
406.3;0.581
406.7;0.608
407.1;0.636
407.5;0.644
407.9;0.657
408.3;0.673
408.8;0.695
409.2;0.71
409.6;0.708
410.0;0.731
410.4;0.739
410.8;0.737
411.3;0.74
411.7;0.74
412.1;0.71
412.5;0.674
412.9;0.627
413.3;0.567
413.8;0.51
414.2;0.448
414.6;0.385
415.0;0.327
415.4;0.311
415.8;0.308
416.3;0.32
416.7;0.361
417.1;0.405
417.5;0.418
417.9;0.457
418.3;0.486
418.8;0.49
419.2;0.496
419.6;0.474
420.0;0.517
420.4;0.516
420.8;0.54
421.3;0.566
421.7;0.585
422.1;0.615
422.5;0.632
422.9;0.648
423.3;0.669
423.8;0.64
424.2;0.668
424.6;0.655
425.0;0.649
425.4;0.645
425.8;0.646
426.3;0.669
426.7;0.694
427.1;0.775
427.5;0.867
427.9;0.983
428.3;1.066
428.8;1.12
429.2;1.181
429.6;1.247
430.0;1.292
430.4;1.33
430.8;1.247
431.3;1.231
431.7;1.2
432.1;1.154
432.5;1.129
432.9;1.127
433.3;1.092
433.8;1.053
434.2;0.975
434.6;0.895
435.0;0.812
435.4;0.726
435.8;0.669
436.3;0.62
436.7;0.592
437.1;0.631
437.5;0.648
437.9;0.653
438.3;0.647
438.8;0.62
439.2;0.57
439.6;0.517
440.0;0.49
440.4;0.453
440.8;0.403
441.3;0.386
441.7;0.383
442.1;0.376
442.5;0.373
442.9;0.392
443.3;0.418
443.8;0.453
444.2;0.483
444.6;0.503
445.0;0.508
445.4;0.524
445.8;0.556
446.3;0.559
446.7;0.594
447.1;0.599
447.5;0.63
447.9;0.651
448.3;0.658
448.8;0.688
449.2;0.717
449.6;0.718
450.0;0.701
450.4;0.809
450.8;0.89
451.3;0.959
451.7;1.039
452.1;1.089
452.5;1.119
452.9;1.163
453.3;1.185
453.8;1.177
454.2;1.193
454.6;1.194
455.0;1.211
455.4;1.232
455.8;1.244
456.3;1.249
456.7;1.267
457.1;1.263
457.5;1.245
457.9;1.249
458.3;1.229
458.8;1.188
459.2;1.175
459.6;1.142
460.0;1.098
460.4;1.079
460.8;1.041
461.3;1.001
461.7;0.959
462.1;0.926
462.5;0.873
462.9;0.838
463.3;0.809
463.8;0.79
464.2;0.817
464.6;0.865
465.0;0.926
465.4;0.976
465.8;1.04
466.3;1.048
466.7;1.043
467.1;1.001
467.5;0.956
467.9;0.898
468.3;0.842
468.8;0.786
469.2;0.768
469.6;0.772
470.0;0.785
470.4;0.739
470.8;0.829
471.3;0.794
471.7;0.734
472.1;0.698
472.5;0.667
472.9;0.654
473.3;0.653
473.8;0.661
474.2;0.676
474.6;0.658
475.0;0.648
475.4;0.619
475.8;0.563
476.3;0.499
476.7;0.427
477.1;0.376
477.5;0.295
477.9;0.262
478.3;0.213
478.8;0.148
479.2;0.131
479.6;0.081
480.0;0.084
480.4;0.134
480.8;0.175
481.3;0.218
481.7;0.277
482.1;0.317
482.5;0.387
482.9;0.418
483.3;0.477
483.8;0.513
484.2;0.504
484.6;0.503
485.0;0.514
485.4;0.504
485.8;0.517
486.3;0.519
486.7;0.538
487.1;0.515
487.5;0.493
487.9;0.467
488.3;0.447
488.8;0.398
489.2;0.358
489.6;0.337
490.0;0.286
490.4;0.245
490.8;0.222
491.3;0.219
491.7;0.268
492.1;0.27
492.5;0.314
492.9;0.388
493.3;0.42
493.8;0.466
494.2;0.5
494.6;0.513
495.0;0.513
495.4;0.52
495.8;0.536
496.3;0.538
496.7;0.55
497.1;0.605
497.5;0.629
497.9;0.614
498.3;0.586
498.8;0.546
499.2;0.517
499.6;0.51
500.0;0.547
500.4;0.542
500.8;0.62
501.3;0.669
501.7;0.714
502.1;0.756
502.5;0.772
502.9;0.76
503.3;0.728
503.8;0.662
504.2;0.616
504.6;0.563
505.0;0.554
505.4;0.534
505.8;0.531
506.3;0.527
506.7;0.558
507.1;0.543
507.5;0.558
507.9;0.575
508.3;0.57
508.8;0.647
509.2;0.665
509.6;0.716
510.0;0.768
510.4;0.841
510.8;0.889
511.3;0.938
511.7;0.952
512.1;0.96
512.5;0.967
512.9;0.922
513.3;0.881
513.8;0.821
514.2;0.766
514.6;0.693
515.0;0.644
515.4;0.635
515.8;0.636
516.3;0.631
516.7;0.648
517.1;0.7
517.5;0.689
517.9;0.707
518.3;0.752
518.8;0.799
519.2;0.858
519.6;0.927
520.0;0.984
520.4;1.059
520.8;1.03
521.3;1.028
521.7;0.971
522.1;0.881
522.5;0.774
522.9;0.665
523.3;0.534
523.8;0.457
524.2;0.475
524.6;0.582
525.0;0.777
525.4;0.905
525.8;1.128
526.3;1.329
526.7;1.515
527.1;1.754
527.5;1.964
527.9;2.167
528.3;2.315
528.8;2.427
529.2;2.453
529.6;2.407
530.0;2.368
530.4;2.217
530.8;2.114
531.3;1.982
531.7;1.831
532.1;1.728
532.5;1.636
532.9;1.477
533.3;1.345
533.8;1.253
534.2;1.118
534.6;1.119
535.0;1.115
535.4;1.1
535.8;1.031
536.3;1.01
536.7;0.958
537.1;0.98
537.5;1.0
537.9;1.064
538.3;1.061
538.8;1.15
539.2;1.177
539.6;1.18
540.0;1.184
540.4;1.122
540.8;1.08
541.3;1.051
541.7;0.987
542.1;0.915
542.5;0.874
542.9;0.783
543.3;0.722
543.8;0.701
544.2;0.693
544.6;0.716
545.0;0.764
545.4;0.779
545.8;0.819
546.3;0.835
546.7;0.888
547.1;0.799
547.5;0.754
547.9;0.738
548.3;0.677
548.8;0.649
549.2;0.6
549.6;0.516
550.0;0.536
550.4;0.427
550.8;0.431
551.3;0.435
551.7;0.436
552.1;0.4
552.5;0.392
552.9;0.349
553.3;0.311
553.8;0.312
554.2;0.283
554.6;0.35
555.0;0.398
555.4;0.399
555.8;0.499
556.3;0.529
556.7;0.547
557.1;0.588
557.5;0.616
557.9;0.669
558.3;0.725
558.8;0.806
559.2;0.934
559.6;1.03
560.0;1.179
560.4;1.303
560.8;1.417
561.3;1.509
561.7;1.588
562.1;1.63
562.5;1.626
562.9;1.58
563.3;1.567
563.8;1.525
564.2;1.557
564.6;1.57
565.0;1.622
565.4;1.64
565.8;1.718
566.3;1.749
566.7;1.809
567.1;1.786
567.5;1.806
567.9;1.753
568.3;1.734
568.8;1.684
569.2;1.656
569.6;1.694
570.0;1.69
570.4;1.737
570.8;1.786
571.3;1.813
571.7;1.799
572.1;1.765
572.5;1.759
572.9;1.704
573.3;1.672
573.8;1.624
574.2;1.491
574.6;1.532
575.0;1.534
575.4;1.469
575.8;1.482
576.3;1.46
576.7;1.456
577.1;1.363
577.5;1.299
577.9;1.196
578.3;1.12
578.8;1.065
579.2;1.007
579.6;0.967
580.0;0.943
580.4;0.899
580.8;0.898
581.3;0.851
581.7;0.795
582.1;0.755
582.5;0.726
582.9;0.693
583.3;0.691
583.8;0.691
584.2;0.685
584.6;0.733
585.0;0.82
585.4;0.926
585.8;1.053
586.3;1.217
586.7;1.37
587.1;1.495
587.5;1.589
587.9;1.636
588.3;1.693
588.8;1.677
589.2;1.659
589.6;1.55
590.0;1.491
590.4;1.411
590.8;1.342
591.3;1.262
591.7;1.215
592.1;1.143
592.5;1.118
592.9;1.036
593.3;0.923
593.8;0.834
594.2;0.752
594.6;0.677
595.0;0.581
595.4;0.503
595.8;0.416
596.3;0.35
596.7;0.284
597.1;0.261
597.5;0.258
597.9;0.185
598.3;0.177
598.8;0.2
599.2;0.181
599.6;0.199
600.0;0.199
600.4;0.22
600.8;0.221
601.3;0.232
601.7;0.198
602.1;0.187
602.5;0.172
602.9;0.188
603.3;0.182
603.8;0.201
604.2;0.233
604.6;0.27
605.0;0.265
605.4;0.302
605.8;0.313
606.3;0.32
606.7;0.291
607.1;0.319
607.5;0.318
607.9;0.348
608.3;0.339
608.8;0.353
609.2;0.332
609.6;0.322
610.0;0.299
610.4;0.331
610.8;0.339
611.3;0.342
611.7;0.357
612.1;0.36
612.5;0.309
612.9;0.253
613.3;0.21
613.8;0.211
614.2;0.239
614.6;0.283
615.0;0.35
615.4;0.414
615.8;0.471
616.3;0.53
616.7;0.627
617.1;0.674
617.5;0.744
617.9;0.782
618.3;0.85
618.8;0.938
619.2;0.939
619.6;0.979
620.0;0.985
620.4;0.986
620.8;0.93
621.3;0.895
621.7;0.842
622.1;0.775
622.5;0.679
622.9;0.657
623.3;0.559
623.8;0.516
624.2;0.472
624.6;0.466
625.0;0.421
625.4;0.424
625.8;0.427
626.3;0.453
626.7;0.504
627.1;0.566
627.5;0.617
627.9;0.668
628.3;0.725
628.8;0.762
629.2;0.791
629.6;0.85
630.0;0.906
630.4;0.92
630.8;0.969
631.3;1.01
631.7;1.031
632.1;1.072
632.5;1.068
632.9;1.054
633.3;1.039
633.8;1.015
634.2;0.976
634.6;0.908
635.0;0.882
635.4;0.874
635.8;0.865
636.3;0.871
636.7;0.865
637.1;0.892
637.5;0.887
637.9;0.908
638.3;0.891
638.8;0.88
639.2;0.87
639.6;0.836
640.0;0.822
640.4;0.783
640.8;0.723
641.3;0.654
641.7;0.6
642.1;0.55
642.5;0.522
642.9;0.486
643.3;0.481
643.8;0.477
644.2;0.472
644.6;0.457
645.0;0.493
645.4;0.524
645.8;0.501
646.3;0.544
646.7;0.551
647.1;0.549
647.5;0.527
647.9;0.48
648.3;0.439
648.8;0.394
649.2;0.327
649.6;0.3
650.0;0.217
650.4;0.233
650.8;0.198
651.3;0.219
651.7;0.219
652.1;0.259
652.5;0.264
652.9;0.303
653.3;0.341
653.8;0.365
654.2;0.381
654.6;0.41
655.0;0.447
655.4;0.453
655.8;0.482
656.3;0.495
656.7;0.504
657.1;0.485
657.5;0.496
657.9;0.47
658.3;0.457
658.8;0.424
659.2;0.381
659.6;0.357
660.0;0.288
660.4;0.232
660.8;0.151
661.3;0.079
661.7;0.041
662.1;0.054
662.5;0.135
662.9;0.167
663.3;0.235
663.8;0.264
664.2;0.286
664.6;0.313
665.0;0.346
665.4;0.355
665.8;0.379
666.3;0.404
666.7;0.404
667.1;0.387
667.5;0.405
667.9;0.371
668.3;0.368
668.8;0.357
669.2;0.356
669.6;0.32
670.0;0.33
670.4;0.304
670.8;0.273
671.3;0.289
671.7;0.276
672.1;0.313
672.5;0.335
672.9;0.408
673.3;0.481
673.8;0.556
674.2;0.598
674.6;0.647
675.0;0.719
675.4;0.744
675.8;0.752
676.3;0.759
676.7;0.768
677.1;0.751
677.5;0.734
677.9;0.744
678.3;0.785
678.8;0.831
679.2;0.876
679.6;0.91
680.0;0.922
680.4;0.933
680.8;0.934
681.3;0.941
681.7;0.977
682.1;1.021
682.5;1.015
682.9;1.056
683.3;1.072
683.8;1.088
684.2;1.108
684.6;1.112
685.0;1.144
685.4;1.153
685.8;1.127
686.3;1.13
686.7;1.084
687.1;1.025
687.5;0.985
687.9;0.923
688.3;0.89
688.8;0.859
689.2;0.856
689.6;0.868
690.0;0.834
690.4;0.804
690.8;0.753
691.3;0.702
691.7;0.65
692.1;0.579
692.5;0.505
692.9;0.461
693.3;0.423
693.8;0.406
694.2;0.418
694.6;0.407
695.0;0.384
695.4;0.364
695.8;0.337
696.3;0.343
696.7;0.345
697.1;0.354
697.5;0.329
697.9;0.381
698.3;0.401
698.8;0.439
699.2;0.483
699.6;0.517
700.0;0.516
700.4;0.553
700.8;0.545
701.3;0.573
701.7;0.575
702.1;0.616
702.5;0.66
702.9;0.68
703.3;0.702
703.8;0.779
704.2;0.813
704.6;0.851
705.0;0.833
705.4;0.868
705.8;0.887
706.3;0.888
706.7;0.922
707.1;0.912
707.5;0.87
707.9;0.813
708.3;0.742
708.8;0.666
