Frequence;Amplitude
0.0;11.847
0.4;8.837
0.9;5.2
1.3;3.178
1.8;2.06
2.2;1.526
2.7;1.355
3.1;1.175
3.5;0.937
4.0;0.704
4.4;0.737
4.9;0.772
5.3;0.894
5.8;0.823
6.2;0.78
6.6;0.686
7.1;0.568
7.5;0.533
8.0;0.648
8.4;0.558
8.9;0.338
9.3;0.137
9.8;0.466
10.2;0.733
10.6;0.916
11.1;1.123
11.5;1.225
12.0;1.383
12.4;1.432
12.9;1.445
13.3;1.431
13.7;1.359
14.2;1.204
14.6;1.004
15.1;0.826
15.5;0.807
16.0;0.847
16.4;0.858
16.8;0.843
17.3;0.645
17.7;0.387
18.2;0.44
18.6;0.805
19.1;1.153
19.5;1.37
19.9;1.471
20.4;1.491
20.8;1.499
21.3;1.436
21.7;1.29
22.2;1.107
22.6;0.879
23.1;0.979
23.5;1.159
23.9;1.426
24.4;1.651
24.8;1.786
25.3;1.657
25.7;1.289
26.2;0.742
26.6;0.453
27.0;0.992
27.5;1.489
27.9;1.774
28.4;1.877
28.8;1.84
29.3;1.727
29.7;1.506
30.1;1.249
30.6;1.227
31.0;1.112
31.5;0.993
31.9;0.985
32.4;1.054
32.8;1.16
33.2;1.276
33.7;1.408
34.1;1.363
34.6;1.45
35.0;1.78
35.5;2.267
35.9;2.816
36.3;3.25
36.8;3.513
37.2;3.427
37.7;3.012
38.1;2.386
38.6;1.783
39.0;1.296
39.5;1.128
39.9;1.166
40.3;1.21
40.8;1.118
41.2;0.913
41.7;0.577
42.1;0.633
42.6;0.831
43.0;1.025
43.4;1.026
43.9;0.874
44.3;0.622
44.8;0.461
45.2;0.445
45.7;0.778
46.1;0.918
46.5;1.014
47.0;1.065
47.4;1.019
47.9;0.882
48.3;0.686
48.8;0.36
49.2;0.292
49.6;0.266
50.1;1.467
50.5;0.793
51.0;0.719
51.4;0.704
51.9;0.86
52.3;1.082
52.7;1.358
53.2;1.299
53.6;1.18
54.1;0.809
54.5;0.272
55.0;0.535
55.4;1.166
55.9;1.648
56.3;1.779
56.7;1.576
57.2;1.349
57.6;1.134
58.1;1.093
58.5;1.238
59.0;1.388
59.4;1.426
59.8;1.37
60.3;1.266
60.7;1.361
61.2;1.374
61.6;1.386
62.1;1.383
62.5;1.38
62.9;1.325
63.4;1.278
63.8;1.279
64.3;1.155
64.7;1.193
65.2;1.213
65.6;1.16
66.0;1.034
66.5;0.854
66.9;0.693
67.4;1.056
67.8;2.251
68.3;3.888
68.7;5.922
69.2;7.954
69.6;9.54
70.0;10.447
70.5;10.581
70.9;9.885
71.4;8.651
71.8;7.401
72.3;6.657
72.7;6.741
73.1;7.344
73.6;7.931
74.0;8.588
74.5;9.699
74.9;11.434
75.4;13.554
75.8;15.71
76.2;17.117
76.7;17.756
77.1;17.48
77.6;16.38
78.0;14.71
78.5;12.713
78.9;10.699
79.3;8.974
79.8;7.578
80.2;6.556
80.7;5.707
81.1;4.799
81.6;3.739
82.0;2.617
82.4;1.831
82.9;2.14
83.3;2.949
83.8;3.806
84.2;4.281
84.7;4.356
85.1;4.097
85.6;3.71
86.0;3.336
86.4;3.002
86.9;2.614
87.3;2.319
87.8;1.827
88.2;1.151
88.7;0.695
89.1;1.455
89.5;2.447
90.0;3.273
90.4;3.806
90.9;4.058
91.3;4.318
91.8;4.588
92.2;4.877
92.6;5.146
93.1;5.389
93.5;5.646
94.0;5.987
94.4;6.44
94.9;6.669
95.3;6.836
95.7;6.841
96.2;6.683
96.6;6.453
97.1;6.286
97.5;6.218
98.0;6.383
98.4;6.731
98.8;7.171
99.3;7.551
99.7;7.943
100.2;8.419
100.6;8.914
101.1;9.269
101.5;9.284
102.0;8.924
102.4;8.157
102.8;7.437
103.3;6.904
103.7;6.718
104.2;6.856
104.6;7.338
105.1;7.938
105.5;8.532
105.9;8.847
106.4;9.127
106.8;9.379
107.3;9.867
107.7;10.691
108.2;11.784
108.6;13.068
109.0;14.285
109.5;15.282
109.9;15.788
110.4;15.58
110.8;14.736
111.3;13.58
111.7;12.445
112.1;11.789
112.6;11.566
113.0;11.506
113.5;11.415
113.9;11.192
114.4;10.892
114.8;10.384
115.3;9.461
115.7;8.084
116.1;6.329
116.6;4.623
117.0;3.627
117.5;3.648
117.9;3.988
118.4;4.142
118.8;4.125
119.2;4.074
119.7;4.116
120.1;4.327
120.6;4.643
121.0;4.938
121.5;5.05
121.9;4.701
122.3;3.835
122.8;2.661
123.2;1.776
123.7;2.101
124.1;2.906
124.6;3.501
125.0;4.025
125.4;4.455
125.9;4.539
126.3;3.977
126.8;2.579
127.2;0.523
127.7;2.009
128.1;4.13
128.5;5.478
129.0;5.85
129.4;5.356
129.9;4.535
130.3;3.921
130.8;3.691
131.2;3.592
131.7;3.769
132.1;4.361
132.5;5.266
133.0;6.069
133.4;6.552
133.9;6.588
134.3;6.449
134.8;6.338
135.2;6.619
135.6;7.183
136.1;7.774
136.5;8.045
137.0;7.984
137.4;7.511
137.9;6.628
138.3;5.474
138.7;4.294
139.2;3.392
139.6;3.019
140.1;3.03
140.5;2.987
141.0;2.755
141.4;2.376
141.8;2.114
142.3;2.06
142.7;2.213
143.2;2.439
143.6;2.833
144.1;3.064
144.5;3.235
144.9;3.344
145.4;3.409
145.8;3.528
146.3;3.642
146.7;3.752
147.2;3.795
147.6;3.738
148.1;3.667
148.5;3.558
148.9;3.578
149.4;3.641
149.8;3.866
150.3;4.009
150.7;4.101
151.2;4.149
151.6;4.328
152.0;4.628
152.5;5.121
152.9;5.737
153.4;6.275
153.8;6.649
154.3;6.794
154.7;6.795
155.1;6.672
155.6;6.404
156.0;6.132
156.5;5.851
156.9;5.54
157.4;5.243
157.8;4.917
158.2;4.683
158.7;4.541
159.1;4.397
159.6;4.467
160.0;4.548
160.5;4.647
160.9;4.699
161.4;4.756
161.8;4.92
162.2;5.236
162.7;5.592
163.1;6.156
163.6;6.801
164.0;7.419
164.5;7.871
164.9;8.16
165.3;8.269
165.8;8.222
166.2;8.106
166.7;7.929
167.1;7.789
167.6;7.76
168.0;7.647
168.4;7.26
168.9;6.688
169.3;6.292
169.8;6.373
170.2;6.922
170.7;7.207
171.1;7.103
171.5;6.629
172.0;5.985
172.4;5.414
172.9;5.117
173.3;5.07
173.8;5.129
174.2;5.358
174.6;5.575
175.1;5.707
175.5;5.79
176.0;5.83
176.4;5.878
176.9;5.905
177.3;5.865
177.8;5.966
178.2;6.067
178.6;6.223
179.1;6.396
179.5;6.557
180.0;6.579
180.4;6.424
180.9;6.124
181.3;5.66
181.7;5.408
182.2;5.208
182.6;5.112
183.1;5.064
183.5;5.017
184.0;4.922
184.4;4.75
184.8;4.486
185.3;4.278
185.7;3.926
186.2;3.689
186.6;3.594
187.1;3.624
187.5;3.769
187.9;3.921
188.4;4.04
188.8;4.165
189.3;4.069
189.7;3.916
190.2;3.661
190.6;3.4
191.0;3.139
191.5;2.955
191.9;2.799
192.4;2.673
192.8;2.593
193.3;2.471
193.7;2.352
194.2;2.215
194.6;2.103
195.0;2.021
195.5;1.962
195.9;1.941
196.4;1.954
196.8;1.762
197.3;1.628
197.7;1.484
198.1;1.316
198.6;1.19
199.0;1.061
199.5;0.992
199.9;0.984
200.4;0.836
200.8;0.839
201.2;0.834
201.7;0.774
202.1;0.715
202.6;0.666
203.0;0.657
203.5;0.66
203.9;0.674
204.3;0.702
204.8;0.702
205.2;0.619
205.7;0.5
206.1;0.307
206.6;0.092
207.0;0.134
207.5;0.344
207.9;0.358
208.3;0.428
208.8;0.452
209.2;0.474
209.7;0.534
210.1;0.707
210.6;0.936
211.0;1.184
211.4;1.386
211.9;1.543
212.3;1.597
212.8;1.491
213.2;1.302
213.7;1.17
214.1;1.258
214.5;1.504
215.0;1.789
215.4;1.892
215.9;2.063
216.3;2.133
216.8;2.143
217.2;2.157
217.6;2.155
218.1;2.147
218.5;2.136
219.0;2.059
219.4;2.018
219.9;1.872
220.3;1.695
220.7;1.489
221.2;1.326
221.6;1.245
222.1;1.231
222.5;1.31
223.0;1.322
223.4;1.422
223.9;1.495
224.3;1.518
224.7;1.505
225.2;1.468
225.6;1.436
226.1;1.42
226.5;1.406
227.0;1.499
227.4;1.569
227.8;1.595
228.3;1.572
228.7;1.47
229.2;1.396
229.6;1.335
230.1;1.313
230.5;1.364
230.9;1.308
231.4;1.291
231.8;1.278
232.3;1.269
232.7;1.237
233.2;1.196
233.6;1.143
234.0;1.075
234.5;1.054
234.9;0.984
235.4;0.938
235.8;0.911
236.3;0.931
236.7;0.981
237.1;1.03
237.6;1.065
238.0;0.995
238.5;0.96
238.9;0.921
239.4;0.886
239.8;0.857
240.3;0.858
240.7;0.885
241.1;0.909
241.6;0.85
242.0;0.967
242.5;0.954
242.9;0.98
243.4;1.078
243.8;1.289
244.2;1.593
244.7;1.958
245.1;2.353
245.6;2.588
246.0;2.941
246.5;3.202
246.9;3.395
247.3;3.536
247.8;3.609
248.2;3.618
248.7;3.559
249.1;3.41
249.6;3.312
250.0;3.097
250.4;2.874
250.9;2.681
251.3;2.537
251.8;2.409
252.2;2.322
252.7;2.201
253.1;2.166
253.6;2.029
254.0;1.932
254.4;1.875
254.9;1.774
255.3;1.689
255.8;1.582
256.2;1.546
256.7;1.59
257.1;1.56
257.5;1.633
258.0;1.662
258.4;1.629
258.9;1.575
259.3;1.475
259.8;1.387
260.2;1.287
260.6;1.225
261.1;1.151
261.5;1.056
262.0;0.897
262.4;0.71
262.9;0.502
263.3;0.342
263.7;0.408
264.2;0.633
264.6;0.892
265.1;1.119
265.5;1.282
266.0;1.438
266.4;1.577
266.8;1.672
267.3;1.755
267.7;1.776
268.2;1.86
268.6;1.697
269.1;1.523
269.5;1.421
270.0;1.443
270.4;1.615
270.8;1.852
271.3;2.103
271.7;2.352
272.2;2.365
272.6;2.372
273.1;2.243
273.5;2.049
273.9;1.815
274.4;1.585
274.8;1.408
275.3;1.264
275.7;1.105
276.2;1.003
276.6;0.903
277.0;0.859
277.5;0.82
277.9;0.793
278.4;0.83
278.8;0.898
279.3;0.967
279.7;1.047
280.1;1.09
280.6;1.067
281.0;0.948
281.5;0.796
281.9;0.61
282.4;0.526
282.8;0.614
283.2;0.754
283.7;1.069
284.1;1.273
284.6;1.45
285.0;1.572
285.5;1.687
285.9;1.798
286.4;1.882
286.8;1.95
287.2;1.977
287.7;1.918
288.1;1.889
288.6;1.907
289.0;1.914
289.5;1.959
289.9;1.999
290.3;2.071
290.8;2.088
291.2;2.332
291.7;2.547
292.1;2.815
292.6;3.123
293.0;3.447
293.4;3.749
293.9;3.934
294.3;3.98
294.8;3.885
295.2;3.567
295.7;3.154
296.1;2.716
296.5;2.417
297.0;2.365
297.4;2.529
297.9;2.774
298.3;2.962
298.8;3.057
299.2;3.022
299.7;2.917
300.1;2.706
300.5;2.436
301.0;2.139
301.4;1.865
301.9;1.589
302.3;1.324
302.8;1.177
303.2;1.005
303.6;0.858
304.1;0.746
304.5;0.617
305.0;0.563
305.4;0.506
305.9;0.509
306.3;0.509
306.7;0.529
307.2;0.559
307.6;0.575
308.1;0.578
308.5;0.559
309.0;0.536
309.4;0.531
309.8;0.617
310.3;0.701
310.7;0.781
311.2;0.889
311.6;0.987
312.1;1.051
312.5;1.078
312.9;1.06
313.4;0.992
313.8;0.883
314.3;0.768
314.7;0.653
315.2;0.584
315.6;0.598
316.1;0.638
316.5;0.707
316.9;0.772
317.4;0.913
317.8;0.914
318.3;0.927
318.7;0.949
319.2;0.959
319.6;0.976
320.0;0.978
320.5;0.985
320.9;1.036
321.4;1.02
321.8;1.006
322.3;0.956
322.7;0.884
323.1;0.759
323.6;0.619
324.0;0.49
324.5;0.367
324.9;0.222
325.4;0.133
325.8;0.131
326.2;0.214
326.7;0.294
327.1;0.351
327.6;0.409
328.0;0.46
328.5;0.519
328.9;0.518
329.4;0.567
329.8;0.614
330.2;0.676
330.7;0.743
331.1;0.82
331.6;0.909
332.0;0.939
332.5;1.04
332.9;0.941
333.3;0.833
333.8;0.711
334.2;0.636
334.7;0.623
335.1;0.646
335.6;0.66
336.0;0.595
336.4;0.586
336.9;0.508
337.3;0.448
337.8;0.388
338.2;0.364
338.7;0.329
339.1;0.277
339.5;0.253
340.0;0.236
340.4;0.209
340.9;0.206
341.3;0.261
341.8;0.299
342.2;0.341
342.6;0.364
343.1;0.388
343.5;0.399
344.0;0.316
344.4;0.289
344.9;0.26
345.3;0.248
345.8;0.236
346.2;0.193
346.6;0.14
347.1;0.059
347.5;0.041
348.0;0.144
348.4;0.228
348.9;0.304
349.3;0.366
349.7;0.422
350.2;0.495
350.6;0.505
351.1;0.543
351.5;0.535
352.0;0.536
352.4;0.503
352.8;0.471
353.3;0.425
353.7;0.371
354.2;0.318
354.6;0.282
355.1;0.35
355.5;0.4
355.9;0.478
356.4;0.557
356.8;0.621
357.3;0.656
357.7;0.661
358.2;0.638
358.6;0.578
359.0;0.597
359.5;0.57
359.9;0.565
360.4;0.605
360.8;0.656
361.3;0.72
361.7;0.768
362.2;0.833
362.6;0.862
363.0;0.903
363.5;0.928
363.9;0.976
364.4;1.03
364.8;1.073
365.3;1.102
365.7;1.106
366.1;1.049
366.6;1.042
367.0;0.961
367.5;0.873
367.9;0.764
368.4;0.647
368.8;0.527
369.2;0.399
369.7;0.299
370.1;0.295
370.6;0.35
371.0;0.48
371.5;0.594
371.9;0.7
372.3;0.749
372.8;0.784
373.2;0.772
373.7;0.732
374.1;0.705
374.6;0.703
375.0;0.716
375.5;0.749
375.9;0.792
376.3;0.842
376.8;0.879
377.2;0.908
377.7;0.895
378.1;0.9
378.6;0.904
379.0;0.902
379.4;0.926
379.9;0.987
380.3;1.088
380.8;1.212
381.2;1.396
381.7;1.509
382.1;1.627
382.5;1.725
383.0;1.784
383.4;1.81
383.9;1.804
384.3;1.758
384.8;1.69
385.2;1.58
385.6;1.62
386.1;1.55
386.5;1.447
387.0;1.307
387.4;1.158
387.9;0.998
388.3;0.861
388.7;0.754
389.2;0.752
389.6;0.777
390.1;0.793
390.5;0.792
391.0;0.741
391.4;0.67
391.9;0.625
392.3;0.584
392.7;0.556
393.2;0.585
393.6;0.607
394.1;0.656
394.5;0.678
395.0;0.726
395.4;0.754
395.8;0.781
396.3;0.807
396.7;0.79
397.2;0.801
397.6;0.806
398.1;0.829
398.5;0.836
398.9;0.848
399.4;0.881
399.8;0.904
400.3;0.969
400.7;0.957
401.2;1.034
401.6;1.163
402.0;1.304
402.5;1.428
402.9;1.499
403.4;1.556
403.8;1.59
404.3;1.609
404.7;1.645
405.1;1.677
405.6;1.7
406.0;1.722
406.5;1.763
406.9;1.791
407.4;1.809
407.8;1.815
408.3;1.807
408.7;1.769
409.1;1.717
409.6;1.672
410.0;1.645
410.5;1.598
410.9;1.554
411.4;1.489
411.8;1.428
412.2;1.356
412.7;1.299
413.1;1.328
413.6;1.397
414.0;1.522
414.5;1.667
414.9;1.769
415.3;1.82
415.8;1.827
416.2;1.754
416.7;1.66
417.1;1.573
417.6;1.536
418.0;1.547
418.4;1.561
418.9;1.547
419.3;1.564
419.8;1.469
420.2;1.371
420.7;1.268
421.1;1.202
421.6;1.192
422.0;1.193
422.4;1.189
422.9;1.112
423.3;1.121
423.8;1.003
424.2;0.914
424.7;0.815
425.1;0.742
425.5;0.671
426.0;0.585
426.4;0.504
426.9;0.369
427.3;0.254
427.8;0.24
428.2;0.31
428.6;0.382
429.1;0.465
429.5;0.553
430.0;0.672
430.4;0.719
430.9;0.922
431.3;0.946
431.7;0.935
432.2;0.934
432.6;0.926
433.1;0.971
433.5;0.998
434.0;0.985
434.4;0.927
434.8;0.894
435.3;0.81
435.7;0.732
436.2;0.656
436.6;0.622
437.1;0.546
437.5;0.483
438.0;0.441
438.4;0.362
438.8;0.291
439.3;0.269
439.7;0.294
440.2;0.347
440.6;0.376
441.1;0.389
441.5;0.378
441.9;0.347
442.4;0.337
442.8;0.387
443.3;0.418
443.7;0.418
444.2;0.371
444.6;0.329
445.0;0.304
445.5;0.33
445.9;0.398
446.4;0.472
446.8;0.56
447.3;0.616
447.7;0.616
448.1;0.593
448.6;0.548
449.0;0.501
449.5;0.435
449.9;0.392
450.4;0.413
450.8;0.45
451.2;0.485
451.7;0.545
452.1;0.579
452.6;0.642
453.0;0.769
453.5;0.864
453.9;1.009
454.4;1.169
454.8;1.307
455.2;1.425
455.7;1.495
456.1;1.51
456.6;1.515
457.0;1.46
457.5;1.398
457.9;1.317
458.3;1.249
458.8;1.214
459.2;1.227
459.7;1.267
460.1;1.304
460.6;1.36
461.0;1.347
461.4;1.385
461.9;1.486
462.3;1.61
462.8;1.726
463.2;1.836
463.7;1.856
464.1;1.833
464.5;1.783
465.0;1.649
465.4;1.446
465.9;1.242
466.3;1.011
466.8;0.897
467.2;0.919
467.7;1.125
468.1;1.367
468.5;1.751
469.0;2.09
469.4;2.467
469.9;2.847
470.3;3.203
470.8;3.481
471.2;3.601
471.6;3.622
472.1;3.545
472.5;3.337
473.0;3.138
473.4;2.944
473.9;2.737
474.3;2.52
474.7;2.256
475.2;2.009
475.6;1.775
476.1;1.678
476.5;1.726
477.0;1.743
477.4;1.729
477.8;1.688
478.3;1.685
478.7;1.742
479.2;1.885
479.6;1.945
480.1;2.098
480.5;2.114
480.9;2.056
481.4;1.98
481.8;1.912
482.3;1.814
482.7;1.728
483.2;1.567
483.6;1.445
484.1;1.24
484.5;1.103
484.9;1.107
485.4;1.225
485.8;1.356
486.3;1.429
486.7;1.49
487.2;1.56
487.6;1.492
488.0;1.439
488.5;1.381
488.9;1.266
489.4;1.16
489.8;1.016
490.3;0.902
490.7;0.842
491.1;0.874
491.6;0.871
492.0;0.872
492.5;0.87
492.9;0.873
493.4;0.907
493.8;0.941
494.2;0.963
494.7;0.943
495.1;1.09
495.6;1.137
496.0;1.162
496.5;1.188
496.9;1.214
497.3;1.259
497.8;1.393
498.2;1.561
498.7;1.766
499.1;2.011
499.6;2.248
500.0;2.428
500.5;2.572
500.9;2.624
501.3;2.613
501.8;2.534
502.2;2.449
502.7;2.479
503.1;2.491
503.6;2.606
504.0;2.775
504.4;2.916
504.9;3.005
505.3;3.032
505.8;2.995
506.2;2.963
506.7;2.91
507.1;2.853
507.5;2.856
508.0;2.92
508.4;2.966
508.9;2.998
509.3;3.015
509.8;3.013
510.2;2.979
510.6;2.898
511.1;2.797
511.5;2.706
512.0;2.67
512.4;2.677
512.9;2.697
513.3;2.651
513.8;2.694
514.2;2.548
514.6;2.349
515.1;2.156
515.5;2.013
516.0;1.883
516.4;1.816
516.9;1.79
517.3;1.805
517.7;1.728
518.2;1.656
518.6;1.566
519.1;1.468
519.5;1.331
520.0;1.223
520.4;1.164
520.8;1.157
521.3;1.262
521.7;1.496
522.2;1.738
522.6;1.981
523.1;2.233
523.5;2.431
523.9;2.574
524.4;2.635
524.8;2.642
525.3;2.64
525.7;2.55
526.2;2.481
526.6;2.376
527.0;2.33
527.5;2.25
527.9;2.18
528.4;2.067
528.8;1.885
529.3;1.807
529.7;1.716
530.2;1.635
530.6;1.534
531.0;1.436
531.5;1.329
531.9;1.206
532.4;1.122
532.8;0.978
533.3;0.883
533.7;0.883
534.1;0.797
534.6;0.802
535.0;0.757
535.5;0.735
535.9;0.718
536.4;0.734
536.8;0.793
537.2;0.885
537.7;0.986
538.1;1.063
538.6;1.113
539.0;1.14
539.5;1.181
539.9;1.233
540.3;1.26
540.8;1.296
541.2;1.314
541.7;1.34
542.1;1.345
542.6;1.357
543.0;1.351
543.4;1.341
543.9;1.352
544.3;1.321
544.8;1.323
545.2;1.283
545.7;1.229
546.1;1.165
546.6;1.138
547.0;1.168
547.4;1.225
547.9;1.228
548.3;1.317
548.8;1.462
549.2;1.635
549.7;1.765
550.1;1.982
550.5;2.043
551.0;2.114
551.4;2.155
551.9;2.193
552.3;2.188
552.8;2.138
553.2;2.036
553.6;1.883
554.1;1.737
554.5;1.602
555.0;1.515
555.4;1.428
555.9;1.403
556.3;1.401
556.7;1.438
557.2;1.501
557.6;1.581
558.1;1.592
558.5;1.648
559.0;1.669
559.4;1.726
559.9;1.751
560.3;1.806
560.7;1.858
561.2;1.932
561.6;1.973
562.1;1.992
562.5;1.984
563.0;1.928
563.4;1.933
563.8;1.866
564.3;1.8
564.7;1.694
565.2;1.633
565.6;1.537
566.1;1.516
566.5;1.502
566.9;1.515
567.4;1.49
567.8;1.437
568.3;1.332
568.7;1.238
569.2;1.11
569.6;0.989
570.0;0.871
570.5;0.687
570.9;0.571
571.4;0.5
571.8;0.448
572.3;0.504
572.7;0.591
573.1;0.649
573.6;0.739
574.0;0.793
574.5;0.914
574.9;0.981
575.4;1.058
575.8;1.146
576.3;1.159
576.7;1.178
577.1;1.161
577.6;1.067
578.0;0.972
578.5;0.926
578.9;0.856
579.4;0.794
579.8;0.735
580.2;0.713
580.7;0.738
581.1;0.804
581.6;0.834
582.0;0.892
582.5;0.925
582.9;1.003
583.3;1.037
583.8;1.099
584.2;1.114
584.7;1.185
585.1;1.18
585.6;1.173
586.0;1.22
586.4;1.158
586.9;1.11
587.3;1.053
587.8;0.98
588.2;0.881
588.7;0.774
589.1;0.607
589.5;0.542
590.0;0.437
590.4;0.404
590.9;0.522
591.3;0.639
591.8;0.725
592.2;0.855
592.7;0.903
593.1;0.9
593.5;0.836
594.0;0.752
594.4;0.693
594.9;0.565
595.3;0.448
595.8;0.365
596.2;0.286
596.6;0.256
597.1;0.221
597.5;0.216
598.0;0.24
598.4;0.265
598.9;0.343
599.3;0.457
599.7;0.539
600.2;0.623
600.6;0.692
601.1;0.75
601.5;0.839
602.0;0.873
602.4;0.886
602.8;0.904
603.3;0.909
603.7;0.915
604.2;0.906
604.6;0.995
605.1;1.057
605.5;1.128
606.0;1.074
606.4;1.127
606.8;1.13
607.3;1.168
607.7;1.2
608.2;1.215
608.6;1.315
609.1;1.39
609.5;1.472
609.9;1.607
610.4;1.664
610.8;1.698
611.3;1.727
611.7;1.664
612.2;1.614
612.6;1.47
613.0;1.424
613.5;1.383
613.9;1.364
614.4;1.388
614.8;1.34
615.3;1.298
615.7;1.196
616.1;1.13
616.6;1.011
617.0;0.921
617.5;0.835
617.9;0.802
618.4;0.768
618.8;0.815
619.2;0.781
619.7;0.735
620.1;0.682
620.6;0.69
621.0;0.671
621.5;0.673
621.9;0.754
622.4;0.767
622.8;0.814
623.2;0.862
623.7;0.86
624.1;0.915
624.6;0.941
625.0;0.96
625.5;1.036
625.9;1.068
626.3;1.154
626.8;1.241
627.2;1.344
627.7;1.346
628.1;1.393
628.6;1.491
629.0;1.514
629.4;1.53
629.9;1.484
630.3;1.495
630.8;1.353
631.2;1.241
631.7;1.106
632.1;0.935
632.5;0.786
633.0;0.595
633.4;0.413
633.9;0.254
634.3;0.119
634.8;0.127
635.2;0.135
635.7;0.148
636.1;0.189
636.5;0.188
637.0;0.188
637.4;0.181
637.9;0.18
638.3;0.176
638.8;0.206
639.2;0.241
639.6;0.314
640.1;0.364
640.5;0.481
641.0;0.569
641.4;0.693
641.9;0.81
642.3;0.904
642.7;1.001
643.2;1.016
643.6;1.067
644.1;1.006
644.5;0.927
645.0;0.897
645.4;0.829
645.8;0.814
646.3;0.875
646.7;1.006
647.2;1.147
647.6;1.174
648.1;1.213
648.5;1.209
648.9;1.181
649.4;1.261
649.8;1.295
650.3;1.352
650.7;1.393
651.2;1.451
651.6;1.399
652.1;1.371
652.5;1.342
652.9;1.359
653.4;1.288
653.8;1.296
654.3;1.317
654.7;1.31
655.2;1.258
655.6;1.232
656.0;1.215
656.5;1.182
656.9;1.176
657.4;1.111
657.8;1.076
658.3;1.002
658.7;0.974
659.1;0.948
659.6;1.072
660.0;1.179
660.5;1.289
660.9;1.348
661.4;1.416
661.8;1.499
662.2;1.563
662.7;1.533
663.1;1.488
663.6;1.377
664.0;1.226
664.5;1.042
664.9;0.87
665.3;0.766
665.8;0.791
666.2;0.936
666.7;1.038
667.1;1.101
667.6;1.163
668.0;1.231
668.5;1.319
668.9;1.463
669.3;1.63
669.8;1.789
670.2;1.932
670.7;2.043
671.1;2.109
671.6;2.167
672.0;2.25
672.4;2.284
672.9;2.428
673.3;2.502
673.8;2.613
674.2;2.648
674.7;2.596
675.1;2.539
675.5;2.531
676.0;2.492
676.4;2.46
676.9;2.508
677.3;2.45
677.8;2.394
678.2;2.295
678.6;2.168
679.1;2.059
679.5;2.009
680.0;1.831
680.4;1.73
680.9;1.633
681.3;1.531
681.8;1.38
682.2;1.343
682.6;1.307
683.1;1.278
683.5;1.26
684.0;1.26
684.4;1.245
684.9;1.166
685.3;1.042
685.7;0.941
686.2;0.775
686.6;0.593
687.1;0.461
687.5;0.304
688.0;0.208
688.4;0.188
688.8;0.196
689.3;0.344
689.7;0.464
690.2;0.64
690.6;0.77
691.1;0.873
691.5;1.021
691.9;1.132
692.4;1.189
692.8;1.269
693.3;1.325
693.7;1.332
694.2;1.341
694.6;1.321
695.0;1.29
695.5;1.252
695.9;1.235
696.4;1.186
696.8;1.102
697.3;1.018
697.7;0.874
698.2;0.757
698.6;0.774
699.0;0.715
699.5;0.701
699.9;0.655
700.4;0.595
700.8;0.609
701.3;0.601
701.7;0.604
702.1;0.688
702.6;0.615
703.0;0.634
703.5;0.627
703.9;0.581
704.4;0.568
704.8;0.56
705.2;0.583
705.7;0.581
706.1;0.617
706.6;0.635
707.0;0.684
707.5;0.715
707.9;0.731
708.3;0.661
708.8;0.582
709.2;0.474
709.7;0.291
710.1;0.153
710.6;0.21
711.0;0.388
711.4;0.547
711.9;0.725
712.3;0.88
712.8;1.028
713.2;1.139
713.7;1.256
714.1;1.272
714.6;1.321
715.0;1.35
715.4;1.381
715.9;1.372
716.3;1.276
716.8;1.168
717.2;1.002
717.7;0.745
718.1;0.759
718.5;0.8
719.0;0.904
719.4;0.984
719.9;1.074
720.3;1.153
720.8;1.246
721.2;1.317
721.6;1.326
722.1;1.363
722.5;1.328
723.0;1.3
723.4;1.257
723.9;1.189
724.3;1.151
724.7;1.032
725.2;1.031
725.6;1.037
726.1;1.084
726.5;1.097
727.0;1.137
727.4;1.193
727.9;1.294
728.3;1.375
728.7;1.446
729.2;1.478
729.6;1.542
730.1;1.575
730.5;1.577
731.0;1.54
731.4;1.53
731.8;1.515
732.3;1.558
732.7;1.649
733.2;1.685
733.6;1.754
734.1;1.811
734.5;1.788
734.9;1.743
735.4;1.645
735.8;1.574
736.3;1.501
736.7;1.364
737.2;1.284
737.6;1.215
738.0;1.13
738.5;1.07
738.9;0.943
739.4;0.852
739.8;0.772
740.3;0.846
740.7;0.822
741.1;0.818
741.6;0.797
742.0;0.852
742.5;0.884
742.9;0.795
743.4;0.762
743.8;0.77
744.3;0.88
744.7;0.946
745.1;1.069
745.6;1.143
746.0;1.159
746.5;1.218
746.9;1.226
747.4;1.269
747.8;1.279
748.2;1.198
748.7;1.154
749.1;1.089
749.6;1.021
750.0;1.052
750.5;1.155
750.9;1.229
751.3;1.282
751.8;1.288
752.2;1.329
752.7;1.357
