Frequence;Amplitude
0.0;8.292
0.5;8.256
1.0;8.102
1.5;7.838
2.0;7.444
2.5;6.94
3.0;6.388
3.5;5.777
4.0;5.142
4.5;4.524
5.0;4.016
5.5;3.624
6.0;3.412
6.5;3.503
7.0;3.84
7.5;4.276
8.0;4.813
8.5;5.351
9.0;5.846
9.5;6.33
10.0;6.721
10.5;7.03
11.0;7.253
11.5;7.408
12.0;7.48
12.5;7.445
13.0;7.375
13.5;7.177
14.0;6.974
14.5;6.684
15.0;6.395
15.5;6.086
16.0;5.773
16.5;5.488
17.0;5.241
17.5;5.043
18.0;4.914
18.5;4.876
19.0;4.878
19.5;4.997
20.0;5.095
20.5;5.258
21.0;5.409
21.5;5.599
22.0;5.714
22.5;5.891
23.0;6.063
23.5;6.107
24.0;6.239
24.5;6.333
25.0;6.371
25.5;6.413
26.0;6.439
26.5;6.378
27.0;6.357
27.5;6.327
28.0;6.241
28.5;6.246
29.0;6.162
29.5;6.085
30.0;5.994
30.5;5.893
31.0;5.802
31.5;5.75
32.0;5.716
32.5;5.739
33.0;5.707
33.5;5.697
34.0;5.682
34.5;5.601
35.0;5.666
35.5;5.645
36.0;5.703
36.5;5.692
37.0;5.706
37.5;5.768
38.0;5.66
38.5;5.627
39.0;5.594
39.5;5.547
40.0;5.51
40.5;5.471
41.0;5.53
41.5;5.408
42.0;5.281
42.5;4.962
43.0;5.075
43.5;5.134
44.0;5.237
44.5;5.154
45.0;5.179
45.5;5.062
46.0;4.762
46.5;4.774
47.0;4.576
47.5;4.701
48.0;4.704
48.5;4.595
49.0;4.705
49.5;4.543
50.0;4.275
50.5;4.423
51.0;4.342
51.5;4.856
52.0;4.773
52.5;4.583
53.0;4.929
53.5;5.475
54.0;5.868
54.5;5.76
55.0;6.155
55.5;6.422
56.0;6.528
56.5;7.313
57.0;7.88
57.5;5.917
58.0;6.572
58.5;7.116
59.0;7.817
59.5;8.262
60.0;8.673
60.5;8.196
61.0;8.747
61.5;8.989
62.0;8.355
62.5;9.203
63.0;9.677
63.5;9.817
64.0;11.478
64.5;11.581
65.0;11.507
65.5;12.043
66.0;11.85
66.5;10.835
67.0;12.242
67.5;12.347
68.0;13.668
68.5;13.443
69.0;12.997
69.5;13.096
70.0;14.319
70.5;13.975
71.0;13.518
71.5;12.908
72.0;13.298
72.5;13.713
73.0;13.319
73.5;13.219
74.0;13.142
74.5;13.218
75.0;13.382
75.5;13.981
76.0;12.691
76.5;12.384
77.0;12.36
77.5;10.209
78.0;10.66
78.5;11.072
79.0;10.597
79.5;8.993
80.0;9.902
80.5;9.878
81.0;8.672
81.5;9.647
82.0;9.06
82.5;8.647
83.0;10.232
83.5;8.996
84.0;3.744
84.5;6.114
85.0;4.154
85.5;4.808
86.0;5.619
86.5;10.988
87.0;7.883
87.5;7.766
88.0;5.385
88.5;3.215
89.0;3.401
89.5;3.654
90.0;3.28
90.5;2.647
91.0;2.462
91.5;6.226
92.0;5.616
92.5;5.255
93.0;7.66
93.5;8.388
94.0;8.924
94.5;10.036
95.0;6.626
95.5;6.591
96.0;7.215
96.5;8.45
97.0;10.399
97.5;9.126
98.0;8.957
98.5;14.682
99.0;14.665
99.5;13.116
100.0;13.056
100.5;14.679
101.0;13.501
101.5;12.12
102.0;14.661
102.5;16.615
103.0;14.751
103.5;14.027
104.0;14.435
104.5;18.94
105.0;17.875
105.5;17.443
106.0;17.801
106.5;17.88
107.0;17.176
107.5;17.586
108.0;18.044
108.5;18.477
109.0;16.406
109.5;14.832
110.0;12.777
110.5;20.13
111.0;20.135
111.5;20.841
112.0;20.941
112.5;19.439
113.0;16.66
113.5;21.139
114.0;21.215
114.5;18.611
115.0;19.325
115.5;21.937
116.0;21.555
116.5;20.22
117.0;21.351
117.5;21.514
118.0;21.411
118.5;21.201
119.0;20.304
119.5;17.969
120.0;17.487
120.5;18.709
121.0;21.195
121.5;18.114
122.0;17.569
122.5;15.328
123.0;17.747
123.5;18.932
124.0;15.082
124.5;15.876
125.0;13.163
125.5;14.23
126.0;15.266
126.5;13.474
127.0;14.82
127.5;16.103
128.0;15.886
128.5;15.966
129.0;15.174
129.5;15.534
130.0;14.322
130.5;10.513
131.0;12.473
131.5;13.716
132.0;12.856
132.5;12.246
133.0;11.833
133.5;11.432
134.0;11.327
134.5;11.544
135.0;10.452
135.5;7.833
136.0;7.66
136.5;4.858
137.0;5.282
137.5;6.186
138.0;5.441
138.5;5.271
139.0;5.463
139.5;8.921
140.0;6.849
140.5;2.425
141.0;2.396
141.5;0.606
142.0;1.104
142.5;0.685
143.0;0.942
143.5;1.159
144.0;1.091
144.5;1.493
145.0;1.34
145.5;2.798
146.0;3.351
146.5;3.682
147.0;6.723
147.5;6.466
148.0;6.096
148.5;6.444
149.0;8.061
149.5;8.739
150.0;9.258
150.5;8.432
151.0;8.003
151.5;9.665
152.0;10.042
152.5;11.009
153.0;12.915
153.5;13.562
154.0;14.074
154.5;13.132
155.0;14.016
155.5;14.63
156.0;12.671
156.5;15.752
157.0;17.721
157.5;19.745
158.0;19.948
158.5;19.079
159.0;17.741
159.5;18.891
160.0;19.169
160.5;18.767
161.0;19.296
161.5;23.204
162.0;21.737
162.5;21.321
163.0;25.79
163.5;25.612
164.0;25.254
164.5;22.536
165.0;23.394
165.5;25.355
166.0;24.12
166.5;21.443
167.0;23.806
167.5;27.497
168.0;31.809
168.5;32.329
169.0;30.809
169.5;20.287
170.0;26.331
170.5;28.616
171.0;29.501
171.5;29.615
172.0;30.002
172.5;30.107
173.0;31.995
173.5;34.053
174.0;37.911
174.5;32.539
175.0;35.621
175.5;38.095
176.0;34.489
176.5;35.208
177.0;34.039
177.5;38.699
178.0;37.958
178.5;34.78
179.0;43.035
179.5;47.589
180.0;42.344
180.5;43.803
181.0;42.815
181.5;39.108
182.0;41.167
182.5;42.0
183.0;38.641
183.5;41.762
184.0;43.936
184.5;50.971
185.0;46.991
185.5;45.163
186.0;44.291
186.5;39.025
187.0;37.95
187.5;37.799
188.0;26.557
188.5;33.833
189.0;34.677
189.5;37.922
190.0;39.098
190.5;39.377
191.0;43.206
191.5;37.755
192.0;35.617
192.5;37.103
193.0;29.749
193.5;30.653
194.0;37.467
194.5;23.099
195.0;20.297
195.5;44.958
196.0;39.799
196.5;47.149
197.0;41.809
197.5;50.329
198.0;36.103
198.5;24.433
199.0;28.545
199.5;23.143
200.0;14.712
200.5;22.755
201.0;33.639
201.5;20.933
202.0;9.169
202.5;9.27
203.0;3.502
203.5;2.55
204.0;3.712
204.5;9.179
205.0;14.924
205.5;24.252
206.0;74.549
206.5;153.414
207.0;105.688
207.5;85.699
208.0;96.457
208.5;131.881
209.0;105.359
209.5;107.377
210.0;112.343
210.5;123.909
211.0;145.485
211.5;166.639
212.0;189.874
212.5;201.049
213.0;244.837
213.5;254.662
214.0;242.286
214.5;219.768
215.0;326.714
215.5;281.105
216.0;279.486
216.5;302.224
217.0;404.743
217.5;512.68
218.0;478.497
218.5;600.307
219.0;747.85
219.5;619.048
220.0;5708.083
220.5;337.131
221.0;326.861
221.5;91.767
222.0;186.666
222.5;39.591
223.0;31.222
223.5;15.89
224.0;51.277
224.5;48.456
225.0;41.65
225.5;31.51
226.0;35.814
226.5;8.273
227.0;27.045
227.5;33.743
228.0;31.941
228.5;20.884
229.0;25.629
229.5;35.011
230.0;31.863
230.5;33.39
231.0;30.238
231.5;34.484
232.0;39.865
232.5;30.917
233.0;52.775
233.5;45.374
234.0;45.199
234.5;44.841
235.0;42.218
235.5;41.395
236.0;48.357
236.5;41.762
237.0;41.423
237.5;42.398
238.0;40.56
238.5;40.44
239.0;35.939
239.5;37.331
240.0;37.297
240.5;37.48
241.0;36.367
241.5;35.724
242.0;33.652
242.5;29.717
243.0;32.479
243.5;30.308
244.0;24.906
244.5;35.091
245.0;32.24
245.5;32.876
246.0;29.501
246.5;28.907
247.0;28.377
247.5;28.169
248.0;26.097
248.5;26.532
249.0;23.755
249.5;23.72
250.0;21.054
250.5;22.655
251.0;22.793
251.5;22.18
252.0;23.172
252.5;21.27
253.0;17.979
253.5;16.947
254.0;15.142
254.5;15.205
255.0;14.734
255.5;16.461
256.0;15.872
256.5;12.688
257.0;13.376
257.5;12.793
258.0;12.156
258.5;11.038
259.0;12.018
259.5;10.771
260.0;10.638
260.5;10.448
261.0;9.845
261.5;10.088
262.0;8.136
262.5;8.952
263.0;8.698
263.5;8.762
264.0;7.856
264.5;8.08
265.0;7.422
265.5;8.548
266.0;8.021
266.5;7.261
267.0;7.566
267.5;6.934
268.0;6.729
268.5;5.828
269.0;7.512
269.5;7.646
270.0;7.12
270.5;7.625
271.0;7.196
271.5;7.062
272.0;6.761
272.5;6.479
273.0;6.564
273.5;6.415
274.0;6.651
274.5;6.436
275.0;6.607
275.5;6.536
276.0;6.355
276.5;5.943
277.0;5.921
277.5;6.023
278.0;5.758
278.5;5.544
279.0;5.88
279.5;5.751
280.0;5.708
280.5;5.582
281.0;5.802
281.5;7.21
282.0;6.957
282.5;6.288
283.0;6.119
283.5;6.052
284.0;5.718
284.5;6.49
285.0;6.142
285.5;6.437
286.0;6.353
286.5;6.381
287.0;6.893
287.5;6.46
288.0;6.519
288.5;7.065
289.0;6.321
289.5;6.338
290.0;6.014
290.5;6.665
291.0;6.79
291.5;6.785
292.0;6.847
292.5;6.538
293.0;6.897
293.5;6.788
294.0;6.723
294.5;6.603
295.0;6.921
295.5;6.707
296.0;6.597
296.5;6.534
297.0;7.079
297.5;7.304
298.0;7.318
298.5;6.983
299.0;6.861
299.5;6.85
300.0;7.452
300.5;7.56
301.0;7.405
301.5;7.653
302.0;7.589
302.5;7.376
303.0;8.668
303.5;7.984
304.0;7.648
304.5;7.23
305.0;6.926
305.5;6.526
306.0;7.222
306.5;6.95
307.0;6.941
307.5;6.666
308.0;6.627
308.5;5.846
309.0;6.308
309.5;5.795
310.0;5.653
310.5;5.781
311.0;5.716
311.5;5.618
312.0;5.535
312.5;5.753
313.0;6.036
313.5;5.995
314.0;5.928
314.5;4.594
315.0;5.24
315.5;5.351
316.0;5.3
316.5;5.358
317.0;5.109
317.5;5.115
318.0;4.879
318.5;4.765
319.0;4.58
319.5;4.507
320.0;4.14
320.5;4.011
321.0;3.54
321.5;3.9
322.0;3.559
322.5;3.498
323.0;3.579
323.5;3.703
324.0;3.47
324.5;3.736
325.0;3.663
325.5;3.706
326.0;3.686
326.5;3.775
327.0;3.621
327.5;3.403
328.0;3.466
328.5;3.517
329.0;3.164
329.5;3.605
330.0;3.134
330.5;3.177
331.0;3.158
331.5;3.16
332.0;2.752
332.5;2.808
333.0;2.877
333.5;2.621
334.0;2.352
334.5;2.655
335.0;2.782
335.5;2.585
336.0;2.803
336.5;2.964
337.0;2.4
337.5;2.68
338.0;3.214
338.5;3.058
339.0;2.832
339.5;3.115
340.0;3.265
340.5;3.303
341.0;3.189
341.5;3.203
342.0;3.116
342.5;3.112
343.0;2.975
343.5;3.142
344.0;3.231
344.5;3.649
345.0;3.319
345.5;3.054
346.0;3.49
346.5;3.257
347.0;3.619
347.5;3.314
348.0;3.871
348.5;3.867
349.0;4.102
349.5;4.246
350.0;4.269
350.5;4.419
351.0;4.464
351.5;4.323
352.0;4.291
352.5;4.107
353.0;3.946
353.5;4.103
354.0;3.961
354.5;4.096
355.0;4.047
355.5;4.061
356.0;3.834
356.5;4.5
357.0;3.96
357.5;4.498
358.0;4.147
358.5;4.176
359.0;4.246
359.5;4.451
360.0;4.361
360.5;3.781
361.0;4.73
361.5;4.599
362.0;3.841
362.5;4.812
363.0;4.491
363.5;4.759
364.0;4.334
364.5;4.413
365.0;4.595
365.5;4.397
366.0;3.688
366.5;4.182
367.0;5.06
367.5;4.866
368.0;3.838
368.5;3.966
369.0;3.823
369.5;3.885
370.0;4.157
370.5;4.15
371.0;4.028
371.5;3.943
372.0;4.069
372.5;3.714
373.0;3.659
373.5;3.719
374.0;3.617
374.5;3.954
375.0;3.553
375.5;3.717
376.0;3.369
376.5;3.617
377.0;3.676
377.5;3.368
378.0;2.778
378.5;3.274
379.0;4.291
379.5;3.979
380.0;4.12
380.5;3.397
381.0;3.494
381.5;3.405
382.0;3.228
382.5;3.801
383.0;3.932
383.5;3.288
384.0;4.659
384.5;4.526
385.0;4.596
385.5;3.734
386.0;3.563
386.5;3.522
387.0;3.435
387.5;3.773
388.0;3.517
388.5;5.161
389.0;2.865
389.5;2.223
390.0;3.386
390.5;4.417
391.0;4.016
391.5;7.214
392.0;7.123
392.5;5.896
393.0;3.968
393.5;4.681
394.0;5.806
394.5;3.201
395.0;5.287
395.5;5.219
396.0;4.599
396.5;6.65
397.0;7.169
397.5;3.127
398.0;4.532
398.5;4.579
399.0;5.65
399.5;5.63
400.0;6.936
400.5;6.419
401.0;6.027
401.5;5.398
402.0;3.415
402.5;7.333
403.0;8.244
403.5;6.636
404.0;5.69
404.5;2.903
405.0;4.889
405.5;4.823
406.0;5.086
406.5;9.809
407.0;7.581
407.5;4.654
408.0;12.526
408.5;12.04
409.0;12.084
409.5;10.102
410.0;8.45
410.5;8.76
411.0;13.618
411.5;13.311
412.0;9.408
412.5;3.613
413.0;21.827
413.5;33.899
414.0;13.136
414.5;7.499
415.0;8.977
415.5;20.548
416.0;10.636
416.5;10.157
417.0;9.132
417.5;14.904
418.0;12.759
418.5;6.756
419.0;4.827
419.5;6.502
420.0;14.659
420.5;10.346
421.0;6.917
421.5;4.658
422.0;3.314
422.5;3.007
423.0;6.548
423.5;7.235
424.0;5.718
424.5;1.366
425.0;6.023
425.5;8.325
426.0;6.65
426.5;17.807
427.0;22.5
427.5;19.877
428.0;31.674
428.5;40.139
429.0;18.621
429.5;53.92
430.0;68.954
430.5;58.874
431.0;64.524
431.5;66.219
432.0;62.39
432.5;48.392
433.0;54.651
433.5;53.996
434.0;53.393
434.5;55.027
435.0;73.83
435.5;77.592
436.0;99.648
436.5;105.525
437.0;125.532
437.5;201.391
438.0;243.652
438.5;294.227
439.0;521.094
439.5;419.928
440.0;1650.15
440.5;447.379
441.0;321.693
441.5;103.695
442.0;96.046
442.5;70.104
443.0;58.67
443.5;55.914
444.0;67.249
444.5;43.261
445.0;27.547
445.5;16.361
446.0;6.365
446.5;14.065
447.0;6.478
447.5;9.344
448.0;10.208
448.5;11.199
449.0;1.748
449.5;4.954
450.0;15.77
450.5;3.105
451.0;7.068
451.5;7.453
452.0;7.202
452.5;5.79
453.0;7.953
453.5;8.336
454.0;9.731
454.5;5.618
455.0;9.165
455.5;4.305
456.0;7.314
456.5;4.202
457.0;8.885
457.5;6.957
458.0;4.516
458.5;5.5
459.0;5.144
459.5;6.262
460.0;3.605
460.5;6.466
461.0;6.218
461.5;5.048
462.0;3.65
462.5;5.137
463.0;3.143
463.5;2.758
464.0;5.32
464.5;3.199
465.0;3.896
465.5;3.4
466.0;2.053
466.5;3.506
467.0;2.564
467.5;4.017
468.0;2.259
468.5;1.991
469.0;1.862
469.5;1.986
470.0;1.757
470.5;2.707
471.0;2.342
471.5;1.619
472.0;2.444
472.5;2.288
473.0;1.702
473.5;1.784
474.0;1.884
474.5;2.059
475.0;1.934
475.5;1.626
476.0;1.648
476.5;1.259
477.0;1.278
477.5;1.973
478.0;1.863
478.5;1.553
479.0;1.716
479.5;1.148
480.0;1.348
480.5;1.143
481.0;1.237
481.5;1.072
482.0;0.981
482.5;1.52
483.0;1.065
483.5;1.16
484.0;1.199
484.5;1.216
485.0;0.817
485.5;0.548
486.0;0.466
486.5;0.564
487.0;0.69
487.5;0.701
488.0;0.457
488.5;0.542
489.0;0.425
489.5;0.415
490.0;0.546
490.5;0.756
491.0;0.561
491.5;0.582
492.0;0.639
492.5;0.531
493.0;0.414
493.5;0.55
494.0;0.294
494.5;0.45
495.0;0.458
495.5;0.568
496.0;0.506
496.5;0.722
497.0;0.666
497.5;0.436
498.0;0.607
498.5;0.038
499.0;0.139
499.5;0.283
500.0;0.411
500.5;0.089
501.0;0.368
501.5;0.751
502.0;0.497
502.5;0.64
503.0;0.326
503.5;0.503
504.0;0.56
504.5;1.028
505.0;0.447
505.5;1.222
506.0;1.099
506.5;0.928
507.0;1.07
507.5;1.445
508.0;1.527
508.5;1.143
509.0;1.212
509.5;1.344
510.0;1.122
510.5;1.362
511.0;1.428
511.5;1.248
512.0;1.282
512.5;1.306
513.0;1.483
513.5;1.404
514.0;1.406
514.5;1.422
515.0;1.507
515.5;1.534
516.0;1.47
516.5;1.476
517.0;1.563
517.5;1.385
518.0;1.576
518.5;1.761
519.0;1.869
519.5;1.63
520.0;1.804
520.5;1.883
521.0;1.895
521.5;2.03
522.0;2.124
522.5;1.897
523.0;2.256
523.5;2.13
524.0;2.321
524.5;1.949
525.0;2.214
525.5;1.931
526.0;2.007
526.5;1.412
527.0;2.184
527.5;2.035
528.0;1.893
528.5;1.772
529.0;1.708
529.5;1.675
530.0;1.611
530.5;1.896
531.0;1.508
531.5;1.582
532.0;1.789
532.5;1.676
533.0;1.793
533.5;1.858
534.0;2.126
534.5;2.159
535.0;2.027
535.5;2.075
536.0;1.852
536.5;1.739
537.0;1.843
537.5;1.836
538.0;1.576
538.5;1.641
539.0;1.568
539.5;1.098
540.0;1.639
540.5;1.255
541.0;1.107
541.5;1.241
542.0;1.25
542.5;0.948
543.0;1.443
543.5;1.335
544.0;1.089
544.5;1.51
545.0;1.016
545.5;1.481
546.0;1.479
546.5;1.423
547.0;1.789
547.5;1.28
548.0;1.609
548.5;1.375
549.0;1.451
549.5;1.387
550.0;1.454
550.5;1.176
551.0;1.421
551.5;1.134
552.0;1.373
552.5;1.201
553.0;1.177
553.5;1.062
554.0;1.232
554.5;1.143
555.0;1.208
555.5;0.868
556.0;1.165
556.5;1.512
557.0;1.632
557.5;2.197
558.0;1.894
558.5;1.812
559.0;1.628
559.5;1.172
560.0;1.68
560.5;1.572
561.0;1.775
561.5;1.17
562.0;1.797
562.5;1.398
563.0;1.396
563.5;1.752
564.0;1.329
564.5;1.151
565.0;1.48
565.5;1.546
566.0;1.874
566.5;1.94
567.0;2.003
567.5;2.505
568.0;2.658
568.5;2.546
569.0;2.481
569.5;3.105
570.0;2.768
570.5;3.134
571.0;2.578
571.5;3.692
572.0;3.835
572.5;3.413
573.0;3.372
573.5;3.484
574.0;3.947
574.5;3.363
575.0;3.488
575.5;2.913
576.0;3.399
576.5;3.505
577.0;3.592
577.5;3.511
578.0;3.906
578.5;4.246
579.0;3.393
579.5;3.631
580.0;3.686
580.5;3.398
581.0;4.803
581.5;4.434
582.0;4.369
582.5;3.762
583.0;4.518
583.5;3.841
584.0;3.414
584.5;3.78
585.0;3.951
585.5;3.796
586.0;2.727
586.5;3.026
587.0;3.651
587.5;6.421
588.0;5.807
588.5;7.499
589.0;10.0
589.5;7.706
590.0;8.608
590.5;6.268
591.0;4.624
591.5;7.14
592.0;5.04
592.5;6.166
593.0;5.616
593.5;5.86
594.0;6.896
594.5;7.397
595.0;5.438
595.5;6.108
596.0;6.127
596.5;5.38
597.0;6.355
597.5;5.64
598.0;6.225
598.5;6.174
599.0;6.173
599.5;5.913
600.0;5.433
600.5;6.297
601.0;5.525
601.5;5.148
602.0;5.107
602.5;5.958
603.0;6.629
603.5;7.097
604.0;6.371
604.5;5.911
605.0;6.799
605.5;5.426
606.0;6.373
606.5;8.16
607.0;6.839
607.5;6.005
608.0;7.459
608.5;6.614
609.0;7.336
609.5;6.314
610.0;6.979
610.5;7.411
611.0;5.183
611.5;4.964
612.0;4.432
612.5;5.171
613.0;5.247
613.5;5.772
614.0;5.168
614.5;5.061
615.0;6.478
615.5;8.991
616.0;7.746
616.5;4.682
617.0;7.039
617.5;7.168
618.0;3.407
618.5;1.676
619.0;11.259
619.5;8.506
620.0;4.804
620.5;16.901
621.0;18.666
621.5;14.715
622.0;15.696
622.5;21.929
623.0;16.047
623.5;11.528
624.0;12.623
624.5;14.437
625.0;11.815
625.5;15.408
626.0;13.728
626.5;11.472
627.0;4.38
627.5;2.513
628.0;8.015
628.5;2.552
629.0;2.8
629.5;5.603
630.0;4.432
630.5;3.055
631.0;2.569
631.5;2.232
632.0;0.818
632.5;1.861
633.0;1.289
633.5;2.331
634.0;1.108
634.5;2.149
635.0;2.963
635.5;5.78
636.0;4.931
636.5;7.126
637.0;10.769
637.5;10.528
638.0;7.201
638.5;7.401
639.0;8.207
639.5;8.275
640.0;8.142
640.5;7.1
641.0;4.684
641.5;3.016
642.0;0.971
642.5;1.492
643.0;2.307
643.5;6.542
644.0;11.795
644.5;12.173
645.0;13.45
645.5;16.001
646.0;8.858
646.5;21.237
647.0;23.487
647.5;23.151
648.0;25.363
648.5;31.468
649.0;30.636
649.5;31.989
650.0;49.298
650.5;39.067
651.0;49.779
651.5;95.841
652.0;66.748
652.5;46.404
653.0;71.191
653.5;98.165
654.0;89.048
654.5;103.359
655.0;120.039
655.5;60.275
656.0;180.255
656.5;151.307
657.0;94.613
657.5;185.155
658.0;237.58
658.5;232.117
659.0;626.276
659.5;300.904
660.0;1222.498
660.5;557.849
661.0;180.997
661.5;173.425
662.0;49.217
662.5;179.464
663.0;79.019
663.5;57.866
664.0;68.161
664.5;48.196
665.0;29.122
665.5;8.525
666.0;21.952
666.5;18.653
667.0;26.234
667.5;11.311
668.0;20.03
668.5;17.991
669.0;22.211
669.5;16.484
670.0;29.665
670.5;14.983
671.0;9.913
671.5;9.525
672.0;4.305
672.5;6.114
673.0;4.57
673.5;5.595
674.0;6.834
674.5;7.55
675.0;6.492
675.5;3.693
676.0;5.629
676.5;4.125
677.0;7.605
677.5;4.285
678.0;6.864
678.5;6.878
679.0;4.98
679.5;3.519
680.0;5.721
680.5;4.994
681.0;3.767
681.5;5.113
682.0;4.491
682.5;5.0
683.0;5.144
683.5;3.686
684.0;3.971
684.5;3.831
685.0;4.836
685.5;3.321
686.0;3.834
686.5;3.972
687.0;3.685
687.5;3.926
688.0;3.431
688.5;2.842
689.0;2.613
689.5;3.621
690.0;3.291
690.5;3.175
691.0;3.675
691.5;3.569
692.0;2.986
692.5;3.937
693.0;3.008
693.5;2.431
694.0;2.844
694.5;3.351
695.0;3.249
695.5;3.11
696.0;3.679
696.5;2.381
697.0;3.259
697.5;3.142
698.0;3.253
698.5;3.222
699.0;3.068
699.5;3.122
700.0;2.789
700.5;2.514
701.0;2.666
701.5;3.323
702.0;3.428
702.5;3.146
703.0;2.787
703.5;2.681
704.0;3.227
704.5;3.57
705.0;3.221
705.5;3.301
706.0;3.587
706.5;3.357
707.0;3.315
707.5;3.179
708.0;2.873
708.5;2.96
709.0;3.641
709.5;3.56
710.0;3.655
710.5;3.823
711.0;3.515
711.5;3.244
712.0;3.668
712.5;3.352
713.0;3.67
713.5;3.562
714.0;3.575
714.5;3.34
715.0;3.598
715.5;3.806
716.0;4.141
716.5;3.683
717.0;3.626
717.5;3.663
718.0;3.701
718.5;3.186
719.0;3.549
719.5;3.818
720.0;3.339
720.5;3.862
721.0;3.558
721.5;3.466
722.0;3.011
722.5;3.373
723.0;3.385
723.5;3.752
724.0;2.979
724.5;3.802
725.0;2.854
725.5;2.852
726.0;3.027
726.5;3.115
727.0;3.494
727.5;2.898
728.0;3.582
728.5;3.3
729.0;3.619
729.5;3.796
730.0;3.257
730.5;3.345
731.0;2.992
731.5;3.538
732.0;2.962
732.5;3.499
733.0;3.597
733.5;2.832
734.0;3.387
734.5;2.647
735.0;3.089
735.5;2.607
736.0;2.362
736.5;2.613
737.0;2.468
737.5;2.068
738.0;2.671
738.5;2.348
739.0;2.489
739.5;2.376
740.0;2.48
740.5;2.274
741.0;2.302
741.5;2.271
742.0;1.732
742.5;2.114
743.0;1.953
743.5;2.019
744.0;1.92
744.5;1.883
745.0;2.032
745.5;1.945
746.0;2.138
746.5;1.921
747.0;1.497
747.5;1.383
748.0;2.055
748.5;1.842
749.0;1.86
749.5;1.734
750.0;2.046
750.5;1.622
751.0;1.483
751.5;1.932
752.0;1.576
752.5;1.271
753.0;1.095
753.5;0.671
754.0;1.035
754.5;0.786
755.0;0.939
755.5;0.83
756.0;1.073
756.5;0.902
757.0;0.98
757.5;0.512
758.0;0.873
758.5;1.096
759.0;1.349
759.5;1.098
760.0;0.954
760.5;1.297
761.0;1.478
761.5;1.134
762.0;0.832
762.5;0.89
763.0;1.254
763.5;1.07
764.0;0.725
764.5;0.973
765.0;0.776
765.5;0.691
766.0;1.021
766.5;0.844
767.0;0.855
767.5;0.746
768.0;1.141
768.5;0.992
769.0;1.035
769.5;1.667
770.0;1.654
770.5;1.081
771.0;1.299
771.5;1.288
772.0;1.707
772.5;1.552
773.0;1.875
773.5;1.587
774.0;1.525
774.5;1.66
775.0;1.52
775.5;1.1
776.0;1.541
776.5;1.29
777.0;1.38
777.5;1.549
778.0;1.624
778.5;1.745
779.0;1.81
779.5;1.659
780.0;1.653
780.5;1.737
781.0;1.779
781.5;1.756
782.0;2.445
782.5;1.735
783.0;1.619
783.5;2.039
784.0;1.607
784.5;1.706
785.0;2.086
785.5;1.624
786.0;1.834
786.5;1.806
787.0;1.651
787.5;2.016
788.0;2.21
788.5;2.165
789.0;2.037
789.5;1.943
790.0;1.694
790.5;1.955
791.0;1.992
791.5;2.219
792.0;2.107
792.5;2.337
793.0;2.189
793.5;2.284
794.0;2.11
794.5;2.146
795.0;2.058
795.5;1.878
796.0;2.162
796.5;2.059
797.0;2.237
797.5;2.107
798.0;2.142
798.5;2.207
799.0;1.916
799.5;1.971
800.0;1.972
800.5;1.837
801.0;1.922
801.5;1.893
802.0;1.808
802.5;1.938
803.0;2.061
803.5;1.827
804.0;1.905
804.5;1.875
805.0;1.863
805.5;2.04
806.0;1.941
806.5;2.079
807.0;1.823
807.5;2.15
808.0;1.683
808.5;1.769
809.0;1.836
809.5;2.164
810.0;2.098
810.5;2.233
811.0;2.055
811.5;1.866
812.0;1.95
812.5;1.779
813.0;1.755
813.5;1.604
814.0;1.805
814.5;1.274
815.0;2.271
815.5;2.455
816.0;1.701
816.5;1.584
817.0;0.989
817.5;1.866
818.0;1.934
818.5;1.819
819.0;2.26
819.5;1.875
820.0;1.632
820.5;1.681
821.0;1.194
821.5;1.738
822.0;1.515
822.5;1.602
823.0;1.679
823.5;1.485
824.0;1.009
824.5;1.507
825.0;1.49
825.5;1.281
826.0;1.879
826.5;0.419
827.0;3.791
