Frequence;Amplitude
0.0;93.201
0.5;92.47
1.0;93.261
1.5;92.662
2.0;89.805
2.5;86.449
3.0;81.448
3.5;77.559
4.0;73.915
4.5;70.091
5.0;65.691
5.5;59.623
6.0;52.568
6.5;45.785
7.0;40.956
7.5;36.986
8.0;32.444
8.5;27.369
9.0;20.682
9.5;14.739
10.0;10.001
10.5;7.273
11.0;5.783
11.5;2.905
12.0;1.39
12.5;5.007
13.0;8.214
13.5;10.104
14.0;9.794
14.5;9.623
15.0;9.813
15.5;11.708
16.0;13.5
16.5;13.638
17.0;12.365
17.5;10.358
18.0;9.907
18.5;10.467
19.0;11.523
19.5;11.048
20.0;9.679
20.5;7.578
21.0;6.154
21.5;6.526
22.0;7.509
22.5;6.69
23.0;5.17
23.5;3.476
24.0;2.814
24.5;4.851
25.0;6.073
25.5;6.078
26.0;4.862
26.5;3.926
27.0;5.33
27.5;7.128
28.0;7.921
28.5;7.39
29.0;5.297
29.5;4.267
30.0;4.4
30.5;4.538
31.0;10.39
31.5;8.764
32.0;7.729
32.5;3.229
33.0;3.215
33.5;6.013
34.0;7.105
34.5;2.701
35.0;3.311
35.5;1.859
36.0;2.988
36.5;2.458
37.0;3.126
37.5;4.035
38.0;2.738
38.5;4.503
39.0;4.852
39.5;8.857
40.0;10.534
40.5;12.709
41.0;17.885
41.5;17.074
42.0;14.008
42.5;9.064
43.0;5.436
43.5;4.021
44.0;3.632
44.5;0.485
45.0;3.706
45.5;1.385
46.0;1.234
46.5;6.458
47.0;4.226
47.5;5.022
48.0;4.262
48.5;5.769
49.0;2.821
49.5;4.143
50.0;7.966
50.5;9.465
51.0;8.711
51.5;4.959
52.0;0.973
52.5;6.347
53.0;4.011
53.5;2.212
54.0;4.154
54.5;4.519
55.0;4.832
55.5;7.195
56.0;2.793
56.5;3.439
57.0;5.413
57.5;3.081
58.0;4.878
58.5;6.956
59.0;8.919
59.5;19.606
60.0;41.278
60.5;19.496
61.0;13.458
61.5;14.184
62.0;17.453
62.5;13.055
63.0;5.971
63.5;6.143
64.0;1.353
64.5;8.066
65.0;2.231
65.5;1.226
66.0;3.523
66.5;1.757
67.0;4.342
67.5;7.866
68.0;14.946
68.5;8.621
69.0;2.301
69.5;1.211
70.0;4.529
70.5;8.073
71.0;9.416
71.5;4.054
72.0;7.994
72.5;16.084
73.0;3.979
73.5;5.686
74.0;7.854
74.5;8.666
75.0;14.014
75.5;6.041
76.0;16.555
76.5;9.223
77.0;13.299
77.5;12.808
78.0;3.049
78.5;3.792
79.0;9.33
79.5;8.566
80.0;12.438
80.5;4.114
81.0;8.489
81.5;8.843
82.0;5.959
82.5;9.153
83.0;6.102
83.5;8.367
84.0;3.332
84.5;3.985
85.0;1.41
85.5;4.762
86.0;1.371
86.5;1.806
87.0;3.711
87.5;5.256
88.0;2.727
88.5;3.841
89.0;4.39
89.5;4.302
90.0;5.957
90.5;6.976
91.0;1.219
91.5;10.908
92.0;7.237
92.5;6.828
93.0;7.686
93.5;3.405
94.0;8.033
94.5;9.036
95.0;4.278
95.5;7.587
96.0;4.294
96.5;2.996
97.0;3.038
97.5;4.456
98.0;3.07
98.5;2.286
99.0;10.222
99.5;3.241
100.0;3.938
100.5;11.744
101.0;21.301
101.5;13.176
102.0;21.008
102.5;15.257
103.0;12.659
103.5;22.254
104.0;9.318
104.5;44.182
105.0;13.582
105.5;34.889
106.0;44.372
106.5;38.612
107.0;37.128
107.5;63.0
108.0;31.425
108.5;9.074
109.0;39.228
109.5;52.111
110.0;39.473
110.5;30.725
111.0;70.46
111.5;41.384
112.0;41.565
112.5;55.015
113.0;52.005
113.5;13.998
114.0;19.683
114.5;36.355
115.0;29.918
115.5;22.515
116.0;31.363
116.5;49.326
117.0;37.926
117.5;23.922
118.0;51.807
118.5;28.818
119.0;15.806
119.5;34.76
120.0;44.13
120.5;28.853
121.0;33.714
121.5;41.793
122.0;24.069
122.5;37.069
123.0;22.585
123.5;55.167
124.0;52.996
124.5;46.578
125.0;19.185
125.5;38.085
126.0;25.913
126.5;29.15
127.0;44.484
127.5;17.604
128.0;56.728
128.5;49.041
129.0;49.168
129.5;35.959
130.0;48.326
130.5;10.608
131.0;55.419
131.5;34.302
132.0;18.604
132.5;16.497
133.0;20.015
133.5;8.989
134.0;17.284
134.5;7.634
135.0;20.253
135.5;15.603
136.0;16.795
136.5;40.683
137.0;28.435
137.5;39.869
138.0;23.291
138.5;36.624
139.0;12.53
139.5;37.351
140.0;24.991
140.5;47.12
141.0;15.134
141.5;42.364
142.0;34.175
142.5;62.561
143.0;25.493
143.5;56.484
144.0;21.816
144.5;24.208
145.0;65.043
145.5;32.926
146.0;53.043
146.5;17.342
147.0;53.829
147.5;14.9
148.0;54.643
148.5;27.281
149.0;63.788
149.5;9.454
150.0;28.716
150.5;55.197
151.0;89.793
151.5;45.678
152.0;48.133
152.5;34.341
153.0;27.322
153.5;97.709
154.0;45.775
154.5;113.831
155.0;46.307
155.5;72.94
156.0;48.627
156.5;125.675
157.0;48.844
157.5;87.34
158.0;64.557
158.5;105.424
159.0;69.415
159.5;59.811
160.0;90.194
160.5;63.412
161.0;64.299
161.5;28.477
162.0;56.804
162.5;35.475
163.0;31.951
163.5;17.81
164.0;20.443
164.5;13.836
165.0;20.413
165.5;18.091
166.0;27.888
166.5;32.162
167.0;30.292
167.5;46.084
168.0;42.601
168.5;43.899
169.0;25.245
169.5;57.544
170.0;51.935
170.5;64.069
171.0;9.309
171.5;58.108
172.0;46.696
172.5;61.069
173.0;49.772
173.5;67.468
174.0;92.82
174.5;62.577
175.0;56.46
175.5;110.65
176.0;129.406
176.5;92.912
177.0;64.381
177.5;34.589
178.0;102.426
178.5;72.079
179.0;82.95
179.5;65.086
180.0;77.246
180.5;11.537
181.0;37.908
181.5;35.716
182.0;37.841
182.5;26.655
183.0;20.385
183.5;19.696
184.0;35.624
184.5;46.592
185.0;33.609
185.5;88.16
186.0;16.375
186.5;39.647
187.0;20.098
187.5;40.612
188.0;17.767
188.5;19.981
189.0;20.059
189.5;35.317
190.0;19.391
190.5;15.367
191.0;23.456
191.5;31.434
192.0;22.936
192.5;11.643
193.0;24.759
193.5;25.98
194.0;15.744
194.5;17.155
195.0;28.74
195.5;16.295
196.0;23.122
196.5;15.882
197.0;20.845
197.5;8.843
198.0;22.048
198.5;26.552
199.0;19.481
199.5;14.371
200.0;14.799
200.5;17.073
201.0;17.322
201.5;15.772
202.0;19.493
202.5;11.428
203.0;10.962
203.5;13.643
204.0;16.434
204.5;13.248
205.0;7.256
205.5;10.621
206.0;11.477
206.5;17.828
207.0;19.641
207.5;21.174
208.0;21.146
208.5;24.639
209.0;38.208
209.5;24.628
210.0;4.43
210.5;20.8
211.0;33.118
211.5;21.833
212.0;5.156
212.5;13.3
213.0;14.655
213.5;8.396
214.0;7.443
214.5;7.614
215.0;5.38
215.5;5.447
216.0;12.651
216.5;17.739
217.0;12.168
217.5;9.407
218.0;31.702
218.5;20.106
219.0;15.93
219.5;22.797
220.0;26.709
220.5;9.785
221.0;19.236
221.5;11.988
222.0;23.452
222.5;13.182
223.0;7.815
223.5;10.475
224.0;9.887
224.5;12.904
225.0;6.629
225.5;7.986
226.0;3.382
226.5;13.063
227.0;7.022
227.5;7.36
228.0;8.564
228.5;4.908
229.0;8.642
229.5;2.066
230.0;5.879
230.5;2.352
231.0;5.018
231.5;5.297
232.0;5.27
232.5;14.132
233.0;11.694
233.5;9.169
234.0;16.529
234.5;11.04
235.0;19.397
235.5;28.646
236.0;6.718
236.5;26.487
237.0;13.842
237.5;12.574
238.0;20.617
238.5;22.283
239.0;24.007
239.5;11.711
240.0;19.773
240.5;17.118
241.0;5.414
241.5;14.294
242.0;12.834
242.5;3.323
243.0;14.779
243.5;18.002
244.0;12.496
244.5;6.137
245.0;17.648
245.5;10.222
246.0;14.98
246.5;34.859
247.0;28.641
247.5;39.086
248.0;23.749
248.5;13.84
249.0;16.063
249.5;7.98
250.0;9.559
250.5;17.832
251.0;18.679
251.5;15.356
252.0;22.14
252.5;7.417
253.0;13.372
253.5;15.973
254.0;13.498
254.5;16.371
255.0;8.276
255.5;22.984
256.0;17.43
256.5;7.713
257.0;22.009
257.5;14.659
258.0;21.02
258.5;24.348
259.0;9.286
259.5;10.49
260.0;2.47
260.5;21.323
261.0;6.105
261.5;15.428
262.0;2.648
262.5;3.864
263.0;9.862
263.5;4.386
264.0;13.77
264.5;8.974
265.0;11.238
265.5;33.474
266.0;6.072
266.5;9.341
267.0;27.336
267.5;16.199
268.0;15.331
268.5;12.621
269.0;19.356
269.5;10.842
270.0;20.299
270.5;21.616
271.0;12.003
271.5;8.64
272.0;12.912
272.5;4.378
273.0;10.687
273.5;3.287
274.0;3.228
274.5;7.205
275.0;13.919
275.5;3.263
276.0;17.169
276.5;12.056
277.0;12.046
277.5;7.867
278.0;1.219
278.5;10.975
279.0;7.706
279.5;1.686
280.0;2.12
280.5;3.965
281.0;2.641
281.5;7.852
282.0;2.022
282.5;8.079
283.0;4.037
283.5;6.246
284.0;12.207
284.5;10.893
285.0;21.937
285.5;13.117
286.0;18.134
286.5;20.067
287.0;12.977
287.5;21.824
288.0;27.207
288.5;25.286
289.0;36.965
289.5;32.507
290.0;48.841
290.5;42.657
291.0;54.722
291.5;47.685
292.0;34.087
292.5;55.341
293.0;36.428
293.5;62.802
294.0;36.651
294.5;48.926
295.0;67.337
295.5;49.012
296.0;50.061
296.5;75.919
297.0;52.963
297.5;65.709
298.0;101.796
298.5;96.37
299.0;143.922
299.5;138.438
300.0;149.765
300.5;156.585
301.0;132.611
301.5;151.174
302.0;120.515
302.5;124.412
303.0;137.163
303.5;110.11
304.0;115.86
304.5;109.162
305.0;84.681
305.5;90.86
306.0;79.616
306.5;59.088
307.0;53.984
307.5;54.018
308.0;10.598
308.5;7.574
309.0;9.231
309.5;38.151
310.0;51.109
310.5;50.299
311.0;66.129
311.5;86.685
312.0;59.703
312.5;71.662
313.0;65.409
313.5;69.358
314.0;92.027
314.5;90.674
315.0;77.504
315.5;89.887
316.0;60.53
316.5;49.342
317.0;66.974
317.5;43.929
318.0;64.627
318.5;79.949
319.0;59.467
319.5;43.619
320.0;56.691
320.5;31.35
321.0;12.937
321.5;39.948
322.0;62.112
322.5;87.874
323.0;115.242
323.5;115.686
324.0;113.756
324.5;93.481
325.0;79.992
325.5;67.913
326.0;53.795
326.5;84.026
327.0;95.053
327.5;118.434
328.0;143.245
328.5;126.722
329.0;189.528
329.5;202.97
330.0;217.183
330.5;247.91
331.0;270.065
331.5;233.761
332.0;221.153
332.5;222.367
333.0;175.913
333.5;103.211
334.0;55.885
334.5;24.571
335.0;19.338
335.5;35.077
336.0;41.63
336.5;39.851
337.0;37.933
337.5;33.025
338.0;33.678
338.5;40.896
339.0;44.27
339.5;28.628
340.0;27.494
340.5;36.015
341.0;49.139
341.5;59.499
342.0;24.519
342.5;44.001
343.0;49.311
343.5;57.956
344.0;27.143
344.5;40.862
345.0;67.12
345.5;66.346
346.0;53.353
346.5;51.959
347.0;73.322
347.5;39.705
348.0;18.303
348.5;26.276
349.0;41.411
349.5;45.818
350.0;40.239
350.5;43.363
351.0;40.795
351.5;26.089
352.0;17.536
352.5;22.007
353.0;23.653
353.5;19.554
354.0;24.608
354.5;34.212
355.0;30.944
355.5;3.314
356.0;28.561
356.5;28.18
357.0;27.259
357.5;19.829
358.0;41.424
358.5;31.657
359.0;73.309
359.5;46.195
360.0;8.443
360.5;35.618
361.0;64.418
361.5;70.81
362.0;30.522
362.5;25.89
363.0;39.145
363.5;85.022
364.0;64.844
364.5;44.432
365.0;79.56
365.5;37.202
366.0;157.49
366.5;105.989
367.0;194.552
367.5;105.26
368.0;67.272
368.5;151.727
369.0;193.979
369.5;142.642
370.0;32.33
370.5;21.294
371.0;50.833
371.5;26.306
372.0;126.843
372.5;276.579
373.0;375.861
373.5;511.072
374.0;546.517
374.5;626.568
375.0;644.949
375.5;649.516
376.0;706.603
376.5;655.588
377.0;745.053
377.5;758.19
378.0;770.498
378.5;692.876
379.0;516.458
379.5;322.169
380.0;199.828
380.5;108.95
381.0;49.057
381.5;75.554
382.0;170.661
382.5;241.847
383.0;218.549
383.5;154.208
384.0;114.703
384.5;198.933
385.0;299.204
385.5;316.788
386.0;266.644
386.5;151.395
387.0;43.43
387.5;110.099
388.0;178.96
388.5;202.075
389.0;213.729
389.5;276.82
390.0;412.382
390.5;574.119
391.0;719.799
391.5;845.425
392.0;989.683
392.5;1167.349
393.0;1318.107
393.5;1386.063
394.0;1400.129
394.5;1348.837
395.0;1248.779
395.5;1098.677
396.0;947.888
396.5;792.217
397.0;611.747
397.5;470.714
398.0;392.924
398.5;309.929
399.0;226.303
399.5;192.667
400.0;190.064
400.5;168.838
401.0;160.066
401.5;140.919
402.0;139.491
402.5;147.814
403.0;135.025
403.5;119.016
404.0;84.049
404.5;48.717
405.0;27.564
405.5;9.951
406.0;20.002
406.5;30.112
407.0;14.457
407.5;22.882
408.0;40.577
408.5;70.682
409.0;57.163
409.5;36.846
410.0;40.749
410.5;43.294
411.0;47.081
411.5;53.087
412.0;21.367
412.5;9.683
413.0;8.304
413.5;22.405
414.0;19.903
414.5;16.723
415.0;21.412
415.5;14.792
416.0;14.697
416.5;33.379
417.0;50.263
417.5;8.529
418.0;30.368
418.5;32.496
419.0;23.591
419.5;14.225
420.0;13.449
420.5;9.553
421.0;17.909
421.5;21.927
422.0;33.528
422.5;45.659
423.0;17.172
423.5;45.397
424.0;12.251
424.5;32.309
425.0;48.108
425.5;35.716
426.0;95.272
426.5;52.042
427.0;38.36
427.5;66.607
428.0;50.25
428.5;49.95
429.0;24.406
429.5;38.948
430.0;80.412
430.5;76.672
431.0;96.334
431.5;50.41
432.0;117.634
432.5;242.612
433.0;256.198
433.5;171.294
434.0;191.094
434.5;223.789
435.0;180.079
435.5;47.103
436.0;28.434
436.5;59.677
437.0;99.468
437.5;202.805
438.0;123.685
438.5;36.422
439.0;131.254
439.5;197.315
440.0;150.72
440.5;97.159
441.0;93.077
441.5;30.198
442.0;181.955
442.5;249.274
443.0;187.233
443.5;53.824
444.0;205.498
444.5;243.139
445.0;253.963
445.5;277.988
446.0;311.266
446.5;296.272
447.0;159.281
447.5;383.417
448.0;632.518
448.5;741.7
449.0;845.813
449.5;963.219
450.0;917.973
450.5;697.921
451.0;538.445
451.5;464.33
452.0;491.923
452.5;495.857
453.0;439.363
453.5;326.037
454.0;185.034
454.5;81.471
455.0;81.552
455.5;140.656
456.0;130.829
456.5;100.206
457.0;47.881
457.5;49.97
458.0;44.46
458.5;45.874
459.0;99.927
459.5;40.92
460.0;8.011
460.5;56.176
461.0;25.93
461.5;51.691
462.0;39.09
462.5;12.641
463.0;6.531
463.5;32.441
464.0;32.36
464.5;28.262
465.0;14.41
465.5;31.082
466.0;41.465
466.5;6.453
467.0;22.342
467.5;10.242
468.0;22.131
468.5;10.18
469.0;12.053
469.5;9.15
470.0;9.793
470.5;7.76
471.0;14.102
471.5;20.594
472.0;14.872
472.5;13.528
473.0;3.899
473.5;17.963
474.0;21.151
474.5;12.524
475.0;12.919
475.5;18.961
476.0;22.162
476.5;1.984
477.0;4.123
477.5;18.938
478.0;2.924
478.5;6.802
479.0;6.984
479.5;17.792
480.0;9.482
480.5;10.547
481.0;5.227
481.5;21.631
482.0;19.997
482.5;22.487
483.0;4.748
483.5;21.136
484.0;18.257
484.5;12.863
485.0;6.784
485.5;12.576
486.0;13.023
486.5;7.858
487.0;2.01
487.5;8.027
488.0;31.024
488.5;20.874
489.0;4.187
489.5;20.623
490.0;33.348
490.5;15.347
491.0;11.979
491.5;18.015
492.0;23.474
492.5;13.354
493.0;12.275
493.5;30.042
494.0;17.376
494.5;6.218
495.0;8.432
495.5;15.415
496.0;15.472
496.5;3.087
497.0;2.877
497.5;7.965
498.0;10.673
498.5;14.187
499.0;5.677
499.5;10.448
500.0;7.967
500.5;3.609
501.0;3.526
501.5;11.724
502.0;7.323
502.5;4.897
503.0;10.168
503.5;13.459
504.0;12.181
504.5;3.765
505.0;13.753
505.5;13.371
506.0;16.068
506.5;4.92
507.0;7.486
507.5;13.995
508.0;7.881
508.5;15.539
509.0;12.351
509.5;7.827
510.0;5.075
510.5;5.523
511.0;10.059
511.5;9.798
512.0;7.372
512.5;6.476
513.0;4.516
513.5;3.942
514.0;3.926
514.5;4.943
515.0;7.768
515.5;7.6
516.0;6.459
516.5;7.486
517.0;5.654
517.5;3.648
518.0;6.86
518.5;0.352
519.0;4.995
519.5;0.626
520.0;6.261
520.5;3.035
521.0;6.838
521.5;3.06
522.0;8.241
522.5;5.35
523.0;6.809
523.5;4.275
524.0;0.657
524.5;2.069
525.0;1.07
525.5;12.049
526.0;6.996
526.5;3.993
527.0;4.177
527.5;7.052
528.0;10.921
528.5;2.337
529.0;8.561
529.5;6.365
530.0;2.856
530.5;4.112
531.0;6.42
531.5;8.375
532.0;5.894
532.5;7.838
533.0;8.677
533.5;8.144
534.0;11.845
534.5;7.538
535.0;5.127
535.5;4.93
536.0;3.705
536.5;5.999
537.0;5.337
537.5;3.884
538.0;7.319
538.5;12.556
539.0;4.77
539.5;14.194
540.0;4.03
540.5;5.156
541.0;3.536
541.5;2.569
542.0;14.568
542.5;11.437
543.0;1.438
543.5;3.488
544.0;2.157
544.5;9.005
545.0;11.751
545.5;2.497
546.0;7.927
546.5;7.098
547.0;7.936
547.5;6.023
548.0;4.095
548.5;9.05
549.0;5.726
549.5;7.27
550.0;3.346
550.5;4.607
551.0;3.857
551.5;4.592
552.0;4.993
552.5;15.992
553.0;10.619
553.5;5.187
554.0;13.821
554.5;19.219
555.0;11.101
555.5;14.714
556.0;12.349
556.5;5.24
557.0;8.163
557.5;9.12
558.0;7.315
558.5;16.413
559.0;10.15
559.5;4.249
560.0;1.622
560.5;5.657
561.0;6.519
561.5;2.539
562.0;5.188
562.5;1.447
563.0;3.913
563.5;8.979
564.0;8.528
564.5;7.571
565.0;1.232
565.5;4.857
566.0;6.555
566.5;0.719
567.0;8.852
567.5;11.607
568.0;10.971
568.5;6.334
569.0;12.088
569.5;3.968
570.0;11.73
570.5;2.494
571.0;2.282
571.5;10.825
572.0;8.208
572.5;3.376
573.0;3.817
573.5;17.566
574.0;8.753
574.5;8.229
575.0;10.339
575.5;0.74
576.0;18.567
576.5;4.212
577.0;10.65
577.5;13.492
578.0;11.374
578.5;14.949
579.0;11.21
579.5;20.834
580.0;6.369
580.5;7.22
581.0;29.957
581.5;25.273
582.0;30.924
582.5;33.66
583.0;27.113
583.5;31.225
584.0;25.55
584.5;24.928
585.0;26.143
585.5;30.701
586.0;30.424
586.5;37.789
587.0;44.242
587.5;44.023
588.0;57.982
588.5;50.367
589.0;53.112
589.5;52.232
590.0;46.868
590.5;53.452
591.0;47.899
591.5;56.753
592.0;48.054
592.5;65.393
593.0;46.906
593.5;63.138
594.0;59.575
594.5;68.543
595.0;67.515
595.5;57.342
596.0;82.109
596.5;57.142
597.0;83.446
597.5;81.037
598.0;94.884
598.5;87.563
599.0;83.373
599.5;88.419
600.0;71.465
600.5;68.41
601.0;65.618
601.5;54.597
602.0;38.826
602.5;35.347
603.0;29.271
603.5;21.019
604.0;18.204
604.5;22.785
605.0;24.056
605.5;13.656
606.0;19.595
606.5;5.843
607.0;9.819
607.5;8.645
608.0;10.878
608.5;8.306
609.0;16.82
609.5;12.142
610.0;17.634
610.5;15.1
611.0;9.889
611.5;14.026
612.0;15.02
612.5;13.818
613.0;10.667
613.5;16.255
614.0;6.276
614.5;8.313
615.0;7.427
615.5;20.0
616.0;23.062
616.5;28.75
617.0;30.401
617.5;25.453
618.0;15.631
618.5;29.336
619.0;15.353
619.5;19.617
620.0;12.423
620.5;29.333
621.0;6.132
621.5;69.674
622.0;47.702
622.5;14.5
623.0;34.367
623.5;8.091
624.0;10.999
624.5;3.203
625.0;11.95
625.5;44.867
626.0;25.044
626.5;33.386
627.0;29.988
627.5;35.153
628.0;33.879
628.5;12.144
629.0;32.62
629.5;9.546
630.0;20.687
630.5;28.675
631.0;26.391
631.5;11.624
632.0;15.676
632.5;8.309
633.0;14.987
633.5;12.148
634.0;13.011
634.5;11.112
635.0;14.815
635.5;2.854
636.0;27.787
636.5;9.149
637.0;15.968
637.5;7.565
638.0;10.621
638.5;4.8
639.0;3.548
639.5;4.222
640.0;5.729
640.5;13.634
641.0;6.3
641.5;5.204
642.0;13.471
642.5;11.071
643.0;2.587
643.5;7.133
644.0;1.411
644.5;4.999
645.0;7.341
645.5;4.229
646.0;6.504
646.5;8.428
647.0;21.832
647.5;10.284
648.0;13.796
648.5;5.241
649.0;11.318
649.5;6.743
650.0;11.564
650.5;9.519
651.0;13.277
651.5;41.866
652.0;10.918
652.5;2.839
653.0;31.871
653.5;8.402
654.0;25.311
654.5;17.875
655.0;9.504
655.5;14.766
656.0;16.851
656.5;24.1
657.0;16.455
657.5;28.651
658.0;14.927
658.5;17.496
659.0;19.875
659.5;16.894
660.0;45.683
660.5;46.859
661.0;59.096
661.5;53.776
662.0;71.925
662.5;61.973
663.0;59.495
663.5;57.549
664.0;77.687
664.5;64.775
665.0;72.568
665.5;85.48
666.0;76.029
666.5;58.235
667.0;100.27
667.5;73.347
668.0;78.679
668.5;67.105
669.0;53.302
669.5;31.584
670.0;13.453
670.5;18.73
671.0;18.57
671.5;20.49
672.0;24.593
672.5;21.596
673.0;21.403
673.5;10.477
674.0;8.552
674.5;4.097
675.0;2.582
675.5;7.52
676.0;20.995
676.5;18.012
677.0;9.104
677.5;2.132
678.0;2.609
678.5;12.876
679.0;8.8
679.5;15.609
680.0;14.508
680.5;7.229
681.0;9.445
681.5;15.844
682.0;17.391
682.5;7.12
683.0;2.347
683.5;8.676
684.0;13.02
684.5;24.629
685.0;22.32
685.5;21.098
686.0;15.23
686.5;21.73
687.0;14.025
687.5;9.396
688.0;26.026
688.5;21.933
689.0;23.701
689.5;29.84
690.0;17.748
690.5;18.378
691.0;13.789
691.5;21.305
692.0;24.902
692.5;30.158
693.0;24.469
693.5;22.706
694.0;28.252
694.5;23.158
695.0;33.626
695.5;22.581
696.0;22.793
696.5;24.06
697.0;24.536
697.5;17.52
698.0;12.835
698.5;11.567
699.0;12.893
699.5;20.706
700.0;23.831
700.5;17.025
701.0;17.235
701.5;17.804
702.0;20.979
702.5;14.12
703.0;12.586
703.5;9.697
704.0;12.64
704.5;12.505
705.0;12.636
705.5;22.777
706.0;18.859
706.5;23.01
707.0;23.528
707.5;17.406
708.0;13.83
708.5;13.366
709.0;8.891
709.5;14.859
710.0;13.529
710.5;19.072
711.0;17.164
711.5;11.298
712.0;17.594
712.5;26.107
713.0;32.346
713.5;34.041
714.0;26.306
714.5;20.025
715.0;8.868
715.5;14.707
716.0;12.541
716.5;16.385
717.0;20.752
717.5;20.02
718.0;22.498
718.5;17.409
719.0;7.033
719.5;4.853
720.0;7.89
720.5;8.642
721.0;9.939
721.5;8.326
722.0;12.492
722.5;13.544
723.0;18.615
723.5;20.158
724.0;2.557
724.5;14.981
725.0;10.751
725.5;15.544
726.0;18.913
726.5;8.87
727.0;19.447
727.5;16.484
728.0;14.937
728.5;27.362
729.0;7.442
729.5;15.633
730.0;9.018
730.5;20.355
731.0;17.198
731.5;25.897
732.0;11.76
732.5;21.626
733.0;25.515
733.5;25.772
734.0;31.64
734.5;19.841
735.0;26.045
735.5;58.687
736.0;32.463
736.5;35.903
737.0;67.173
737.5;32.253
738.0;24.99
738.5;51.494
739.0;17.244
739.5;24.189
740.0;34.925
740.5;20.123
741.0;12.234
741.5;39.393
742.0;46.036
742.5;46.746
743.0;44.952
743.5;53.201
744.0;49.875
744.5;40.463
745.0;36.96
745.5;37.222
746.0;27.386
746.5;15.002
747.0;24.744
747.5;58.614
748.0;89.645
748.5;132.167
749.0;148.092
749.5;177.152
750.0;176.51
750.5;126.727
751.0;112.011
751.5;77.788
752.0;52.441
752.5;45.382
753.0;54.21
753.5;85.728
754.0;98.826
754.5;62.259
755.0;78.27
755.5;60.354
756.0;49.097
756.5;32.201
757.0;27.214
757.5;29.564
758.0;26.124
758.5;40.176
759.0;21.692
759.5;18.342
760.0;21.519
760.5;45.39
761.0;49.85
761.5;52.47
762.0;55.064
762.5;76.359
763.0;72.603
763.5;70.075
764.0;50.722
764.5;31.965
765.0;7.255
765.5;14.352
766.0;38.775
766.5;51.708
767.0;41.891
767.5;21.85
768.0;0.213
768.5;20.976
769.0;32.082
769.5;33.307
770.0;24.438
770.5;14.003
771.0;14.314
771.5;24.907
772.0;25.716
772.5;20.143
773.0;14.799
773.5;7.313
774.0;16.867
774.5;20.391
775.0;16.24
775.5;3.801
776.0;21.332
776.5;37.133
777.0;46.683
777.5;55.643
778.0;58.363
778.5;52.959
779.0;49.8
779.5;42.599
780.0;33.743
780.5;24.495
781.0;43.235
781.5;71.969
782.0;97.565
782.5;133.844
783.0;168.426
783.5;195.785
784.0;216.325
784.5;252.871
785.0;307.432
785.5;339.154
786.0;363.326
786.5;389.676
787.0;390.313
787.5;367.925
788.0;337.604
788.5;290.128
789.0;246.278
789.5;223.266
790.0;192.95
790.5;176.332
791.0;150.773
791.5;117.574
792.0;114.572
792.5;112.65
793.0;88.017
