Frequence;Amplitude
0.0;13.119
0.5;13.01
1.0;12.422
1.5;11.542
2.0;10.224
2.5;8.686
3.0;6.902
3.5;4.935
4.0;2.969
4.5;1.314
5.0;2.012
5.5;3.885
6.0;5.765
6.5;7.483
7.0;8.961
7.5;10.177
8.0;11.066
8.5;11.622
9.0;11.845
9.5;11.73
10.0;11.295
10.5;10.546
11.0;9.528
11.5;8.336
12.0;6.975
12.5;5.629
13.0;4.365
13.5;3.593
14.0;3.61
14.5;4.33
15.0;5.411
15.5;6.49
16.0;7.476
16.5;8.271
17.0;8.853
17.5;9.198
18.0;9.311
18.5;9.242
19.0;8.96
19.5;8.49
20.0;7.937
20.5;7.345
21.0;6.739
21.5;6.198
22.0;5.838
22.5;5.76
23.0;5.862
23.5;6.163
24.0;6.52
24.5;6.941
25.0;7.328
25.5;7.602
26.0;7.844
26.5;7.867
27.0;7.869
27.5;7.749
28.0;7.567
28.5;7.29
29.0;7.074
29.5;6.911
30.0;6.781
30.5;6.749
31.0;6.782
31.5;6.848
32.0;6.952
32.5;7.06
33.0;7.166
33.5;7.306
34.0;7.403
34.5;7.512
35.0;7.519
35.5;7.578
36.0;7.553
36.5;7.55
37.0;7.536
37.5;7.465
38.0;7.486
38.5;7.463
39.0;7.468
39.5;7.484
40.0;7.497
40.5;7.567
41.0;7.538
41.5;7.641
42.0;7.724
42.5;7.923
43.0;7.963
43.5;7.957
44.0;7.934
44.5;8.038
45.0;8.077
45.5;8.199
46.0;8.444
46.5;8.582
47.0;8.672
47.5;8.66
48.0;8.6
48.5;8.679
49.0;8.611
49.5;8.581
50.0;8.827
50.5;8.791
51.0;8.909
51.5;8.786
52.0;8.862
52.5;9.112
53.0;9.393
53.5;9.223
54.0;9.061
54.5;9.062
55.0;9.182
55.5;9.037
56.0;9.317
56.5;8.855
57.0;8.065
57.5;8.825
58.0;9.238
58.5;9.096
59.0;8.828
59.5;8.408
60.0;8.029
60.5;7.98
61.0;8.113
61.5;7.815
62.0;7.901
62.5;8.355
63.0;8.049
63.5;8.255
64.0;7.628
64.5;6.971
65.0;6.688
65.5;6.168
66.0;5.776
66.5;6.081
67.0;5.573
67.5;5.398
68.0;5.004
68.5;3.589
69.0;3.774
69.5;3.897
70.0;2.353
70.5;2.365
71.0;2.701
71.5;3.308
72.0;3.062
72.5;2.822
73.0;3.486
73.5;3.746
74.0;3.987
74.5;4.208
75.0;4.582
75.5;5.197
76.0;6.679
76.5;6.928
77.0;7.81
77.5;8.902
78.0;8.252
78.5;8.718
79.0;10.242
79.5;9.875
80.0;9.831
80.5;10.596
81.0;10.863
81.5;11.024
82.0;12.313
82.5;11.716
83.0;13.927
83.5;16.433
84.0;13.77
84.5;14.013
85.0;14.569
85.5;13.375
86.0;12.269
86.5;17.39
87.0;18.62
87.5;19.874
88.0;19.788
88.5;17.782
89.0;17.852
89.5;18.457
90.0;18.729
90.5;17.911
91.0;17.319
91.5;20.938
92.0;20.645
92.5;20.141
93.0;22.503
93.5;21.976
94.0;21.529
94.5;20.815
95.0;16.913
95.5;19.056
96.0;19.401
96.5;20.698
97.0;20.221
97.5;19.278
98.0;20.067
98.5;24.712
99.0;20.283
99.5;18.661
100.0;18.821
100.5;18.397
101.0;17.141
101.5;16.271
102.0;19.288
102.5;19.168
103.0;14.184
103.5;16.67
104.0;17.82
104.5;18.085
105.0;15.903
105.5;14.993
106.0;14.881
106.5;13.453
107.0;12.87
107.5;13.194
108.0;12.195
108.5;10.729
109.0;8.573
109.5;8.796
110.0;12.622
110.5;16.184
111.0;12.26
111.5;11.365
112.0;7.822
112.5;6.732
113.0;7.347
113.5;11.504
114.0;6.994
114.5;3.882
115.0;8.805
115.5;5.993
116.0;3.955
116.5;3.738
117.0;4.099
117.5;2.93
118.0;2.758
118.5;2.882
119.0;3.749
119.5;5.084
120.0;2.225
120.5;2.96
121.0;4.393
121.5;8.081
122.0;7.55
122.5;7.229
123.0;6.061
123.5;8.652
124.0;11.012
124.5;11.873
125.0;13.702
125.5;8.449
126.0;10.042
126.5;12.182
127.0;7.945
127.5;11.423
128.0;13.053
128.5;13.593
129.0;15.145
129.5;16.525
130.0;20.804
130.5;17.919
131.0;16.417
131.5;18.19
132.0;20.451
132.5;20.984
133.0;21.655
133.5;22.734
134.0;23.516
134.5;25.421
135.0;29.932
135.5;27.177
136.0;28.738
136.5;31.409
137.0;22.041
137.5;25.957
138.0;28.186
138.5;27.409
139.0;28.163
139.5;29.95
140.0;41.968
140.5;35.415
141.0;35.744
141.5;31.996
142.0;32.563
142.5;32.054
143.0;32.221
143.5;33.668
144.0;35.211
144.5;35.332
145.0;35.268
145.5;37.323
146.0;37.621
146.5;38.639
147.0;41.259
147.5;38.306
148.0;38.216
148.5;39.273
149.0;39.613
149.5;38.998
150.0;37.887
150.5;36.609
151.0;39.558
151.5;40.672
152.0;40.847
152.5;42.678
153.0;42.558
153.5;41.553
154.0;41.103
154.5;40.116
155.0;41.877
155.5;41.259
156.0;42.097
156.5;47.802
157.0;47.846
157.5;48.069
158.0;44.498
158.5;42.334
159.0;43.839
159.5;43.251
160.0;42.849
160.5;43.311
161.0;47.692
161.5;51.954
162.0;47.934
162.5;45.985
163.0;49.24
163.5;45.758
164.0;39.983
164.5;38.232
165.0;49.673
165.5;51.789
166.0;39.09
166.5;48.319
167.0;54.461
167.5;59.472
168.0;55.399
168.5;46.529
169.0;30.519
169.5;50.236
170.0;54.806
170.5;53.282
171.0;49.816
171.5;52.234
172.0;54.031
172.5;56.086
173.0;60.257
173.5;62.249
174.0;57.695
174.5;51.008
175.0;59.273
175.5;52.007
176.0;34.24
176.5;55.743
177.0;58.623
177.5;71.108
178.0;60.616
178.5;64.077
179.0;79.817
179.5;85.465
180.0;40.627
180.5;37.998
181.0;27.351
181.5;13.252
182.0;33.141
182.5;44.883
183.0;100.02
183.5;95.337
184.0;153.547
184.5;344.257
185.0;316.952
185.5;194.645
186.0;150.668
186.5;177.093
187.0;158.707
187.5;144.75
188.0;126.019
188.5;177.824
189.0;195.124
189.5;187.596
190.0;228.982
190.5;283.489
191.0;322.087
191.5;305.988
192.0;266.96
192.5;304.276
193.0;290.742
193.5;202.078
194.0;946.133
194.5;800.327
195.0;149.14
195.5;388.831
196.0;4911.371
196.5;654.08
197.0;675.527
197.5;238.796
198.0;240.027
198.5;127.404
199.0;111.722
199.5;55.133
200.0;54.901
200.5;64.577
201.0;73.985
201.5;76.728
202.0;60.451
202.5;55.045
203.0;52.334
203.5;51.573
204.0;40.738
204.5;39.491
205.0;38.634
205.5;33.984
206.0;24.252
206.5;20.097
207.0;30.014
207.5;28.035
208.0;33.773
208.5;31.214
209.0;37.128
209.5;31.927
210.0;28.598
210.5;37.892
211.0;37.483
211.5;32.508
212.0;34.255
212.5;33.634
213.0;35.661
213.5;37.274
214.0;31.75
214.5;31.951
215.0;36.266
215.5;37.125
216.0;34.28
216.5;34.826
217.0;36.128
217.5;37.163
218.0;33.952
218.5;33.085
219.0;34.054
219.5;31.682
220.0;31.685
220.5;29.063
221.0;26.281
221.5;27.612
222.0;30.985
222.5;28.204
223.0;24.863
223.5;26.322
224.0;27.475
224.5;23.87
225.0;23.053
225.5;23.304
226.0;23.721
226.5;26.848
227.0;21.374
227.5;20.205
228.0;19.951
228.5;20.271
229.0;19.994
229.5;20.288
230.0;13.032
230.5;13.23
231.0;15.075
231.5;14.881
232.0;13.307
232.5;15.241
233.0;13.226
233.5;8.478
234.0;9.616
234.5;10.404
235.0;9.492
235.5;7.843
236.0;8.497
236.5;8.126
237.0;8.076
237.5;6.301
238.0;7.255
238.5;7.539
239.0;9.105
239.5;8.712
240.0;5.788
240.5;5.084
241.0;5.916
241.5;5.546
242.0;5.931
242.5;7.366
243.0;5.523
243.5;5.637
244.0;6.335
244.5;4.392
245.0;4.887
245.5;5.19
246.0;5.723
246.5;5.254
247.0;5.446
247.5;5.582
248.0;6.374
248.5;5.227
249.0;6.78
249.5;5.983
250.0;6.589
250.5;6.729
251.0;5.136
251.5;5.867
252.0;5.801
252.5;7.196
253.0;6.917
253.5;7.621
254.0;8.333
254.5;7.463
255.0;7.226
255.5;5.831
256.0;7.075
256.5;8.092
257.0;7.397
257.5;7.182
258.0;7.444
258.5;7.678
259.0;7.357
259.5;7.419
260.0;7.505
260.5;7.52
261.0;7.596
261.5;7.632
262.0;8.55
262.5;8.023
263.0;8.051
263.5;7.605
264.0;7.663
264.5;8.33
265.0;8.717
265.5;7.487
266.0;7.662
266.5;7.94
267.0;8.305
267.5;8.567
268.0;9.144
268.5;9.704
269.0;8.724
269.5;7.85
270.0;8.201
270.5;8.256
271.0;8.757
271.5;8.878
272.0;9.689
272.5;9.665
273.0;9.754
273.5;9.537
274.0;9.301
274.5;9.519
275.0;9.241
275.5;8.64
276.0;8.762
276.5;9.065
277.0;9.072
277.5;8.865
278.0;9.119
278.5;9.385
279.0;9.124
279.5;8.952
280.0;9.519
280.5;8.756
281.0;9.698
281.5;7.368
282.0;7.281
282.5;7.709
283.0;8.593
283.5;8.688
284.0;9.334
284.5;8.555
285.0;8.357
285.5;8.389
286.0;7.549
286.5;7.597
287.0;7.262
287.5;7.012
288.0;6.769
288.5;6.178
289.0;5.798
289.5;6.813
290.0;7.047
290.5;6.944
291.0;6.397
291.5;6.242
292.0;6.47
292.5;6.332
293.0;6.114
293.5;5.212
294.0;5.486
294.5;5.791
295.0;5.299
295.5;5.74
296.0;5.58
296.5;6.373
297.0;6.592
297.5;6.362
298.0;5.82
298.5;5.145
299.0;5.502
299.5;5.284
300.0;5.354
300.5;4.917
301.0;4.787
301.5;4.355
302.0;4.556
302.5;4.62
303.0;3.929
303.5;3.12
304.0;3.156
304.5;2.942
305.0;3.126
305.5;3.428
306.0;4.38
306.5;2.941
307.0;3.402
307.5;3.284
308.0;3.724
308.5;3.019
309.0;3.073
309.5;0.797
310.0;1.819
310.5;3.242
311.0;2.324
311.5;2.287
312.0;2.063
312.5;2.615
313.0;2.909
313.5;2.389
314.0;1.636
314.5;0.825
315.0;2.242
315.5;2.047
316.0;2.253
316.5;1.858
317.0;1.732
317.5;1.188
318.0;1.784
318.5;1.188
319.0;1.613
319.5;0.799
320.0;1.258
320.5;0.895
321.0;1.218
321.5;1.617
322.0;1.171
322.5;1.681
323.0;1.317
323.5;0.88
324.0;0.932
324.5;0.863
325.0;1.745
325.5;2.557
326.0;3.235
326.5;4.583
327.0;7.77
327.5;17.3
328.0;27.469
328.5;11.89
329.0;7.878
329.5;7.52
330.0;5.255
330.5;4.232
331.0;3.898
331.5;3.763
332.0;3.98
332.5;4.304
333.0;3.523
333.5;3.455
334.0;3.405
334.5;3.31
335.0;3.458
335.5;4.492
336.0;5.137
336.5;4.88
337.0;8.12
337.5;5.564
338.0;3.217
338.5;3.692
339.0;5.098
339.5;5.409
340.0;4.441
340.5;3.997
341.0;4.378
341.5;3.89
342.0;4.298
342.5;4.471
343.0;4.308
343.5;4.14
344.0;5.242
344.5;4.029
345.0;3.173
345.5;4.184
346.0;3.936
346.5;4.437
347.0;4.354
347.5;4.569
348.0;6.259
348.5;4.633
349.0;4.979
349.5;4.17
350.0;4.395
350.5;3.378
351.0;3.106
351.5;3.706
352.0;3.872
352.5;3.935
353.0;4.372
353.5;2.845
354.0;3.179
354.5;4.673
355.0;5.495
355.5;4.657
356.0;7.929
356.5;6.309
357.0;7.084
357.5;7.456
358.0;6.916
358.5;4.676
359.0;6.388
359.5;8.325
360.0;6.995
360.5;5.342
361.0;8.777
361.5;6.472
362.0;6.664
362.5;8.137
363.0;8.45
363.5;15.594
364.0;11.461
364.5;1.97
365.0;12.4
365.5;14.835
366.0;2.787
366.5;27.723
367.0;22.28
367.5;42.893
368.0;50.659
368.5;10.941
369.0;45.827
369.5;41.061
370.0;43.783
370.5;24.959
371.0;15.746
371.5;13.277
372.0;13.853
372.5;13.639
373.0;9.09
373.5;6.334
374.0;6.056
374.5;8.594
375.0;8.733
375.5;8.984
376.0;7.003
376.5;8.193
377.0;11.895
377.5;12.398
378.0;14.05
378.5;7.013
379.0;20.918
379.5;20.36
380.0;28.081
380.5;35.131
381.0;33.356
381.5;38.626
382.0;38.68
382.5;58.727
383.0;66.635
383.5;49.652
384.0;64.197
384.5;73.525
385.0;78.144
385.5;52.242
386.0;49.521
386.5;58.944
387.0;58.144
387.5;74.859
388.0;70.553
388.5;121.578
389.0;147.279
389.5;95.389
390.0;208.869
390.5;372.854
391.0;376.708
391.5;621.041
392.0;2502.974
392.5;250.081
393.0;320.419
393.5;81.068
394.0;69.599
394.5;73.076
395.0;47.601
395.5;41.358
396.0;2.758
396.5;12.163
397.0;14.255
397.5;27.271
398.0;19.711
398.5;21.795
399.0;21.094
399.5;17.076
400.0;18.389
400.5;15.957
401.0;9.464
401.5;8.369
402.0;10.18
402.5;5.741
403.0;11.487
403.5;11.645
404.0;13.126
404.5;16.338
405.0;16.763
405.5;15.944
406.0;12.138
406.5;18.765
407.0;15.49
407.5;13.239
408.0;14.06
408.5;13.276
409.0;13.917
409.5;15.213
410.0;11.101
410.5;10.937
411.0;14.872
411.5;15.778
412.0;15.2
412.5;13.194
413.0;13.708
413.5;14.804
414.0;13.492
414.5;13.761
415.0;13.815
415.5;11.284
416.0;11.672
416.5;12.636
417.0;11.136
417.5;10.532
418.0;9.567
418.5;8.949
419.0;7.374
419.5;10.017
420.0;9.941
420.5;11.493
421.0;8.74
421.5;8.263
422.0;8.037
422.5;8.401
423.0;7.399
423.5;9.211
424.0;8.761
424.5;6.74
425.0;7.675
425.5;6.619
426.0;6.698
426.5;7.109
427.0;6.398
427.5;5.862
428.0;6.101
428.5;5.017
429.0;5.002
429.5;5.467
430.0;5.015
430.5;4.289
431.0;4.047
431.5;4.034
432.0;4.059
432.5;3.703
433.0;3.714
433.5;3.261
434.0;3.497
434.5;4.15
435.0;3.599
435.5;3.331
436.0;3.314
436.5;3.812
437.0;3.53
437.5;2.998
438.0;3.183
438.5;3.319
439.0;3.309
439.5;3.277
440.0;3.33
440.5;3.289
441.0;3.665
441.5;4.084
442.0;3.892
442.5;3.825
443.0;4.118
443.5;3.8
444.0;3.522
444.5;4.044
445.0;3.866
445.5;3.976
446.0;3.863
446.5;3.631
447.0;3.707
447.5;3.612
448.0;3.739
448.5;3.402
449.0;3.61
449.5;3.648
450.0;3.763
450.5;4.422
451.0;3.971
451.5;3.744
452.0;4.03
452.5;3.657
453.0;4.313
453.5;3.7
454.0;4.654
454.5;4.319
455.0;4.853
455.5;4.656
456.0;4.622
456.5;4.126
457.0;4.36
457.5;4.676
458.0;4.485
458.5;4.712
459.0;4.955
459.5;4.861
460.0;4.861
460.5;5.049
461.0;5.117
461.5;4.817
462.0;4.826
462.5;5.213
463.0;4.855
463.5;4.767
464.0;5.544
464.5;5.332
465.0;5.207
465.5;5.834
466.0;5.261
466.5;5.355
467.0;6.398
467.5;6.443
468.0;5.591
468.5;5.692
469.0;5.575
469.5;4.992
470.0;5.191
470.5;5.77
471.0;6.038
471.5;5.583
472.0;5.158
472.5;5.116
473.0;5.174
473.5;5.36
474.0;5.507
474.5;4.652
475.0;4.857
475.5;4.616
476.0;5.021
476.5;4.911
477.0;4.775
477.5;5.62
478.0;5.721
478.5;5.922
479.0;6.079
479.5;5.812
480.0;5.555
480.5;5.561
481.0;4.955
481.5;4.471
482.0;5.361
482.5;6.285
483.0;5.395
483.5;5.004
484.0;4.906
484.5;4.588
485.0;4.35
485.5;4.176
486.0;4.141
486.5;3.763
487.0;4.539
487.5;4.594
488.0;4.43
488.5;4.296
489.0;3.767
489.5;3.933
490.0;4.159
490.5;5.093
491.0;4.263
491.5;5.605
492.0;10.17
492.5;9.692
493.0;6.53
493.5;7.696
494.0;9.258
494.5;3.999
495.0;4.123
495.5;4.463
496.0;3.864
496.5;3.466
497.0;2.56
497.5;2.888
498.0;3.278
498.5;3.127
499.0;2.274
499.5;2.3
500.0;2.484
500.5;3.007
501.0;2.517
501.5;2.231
502.0;1.953
502.5;2.131
503.0;2.473
503.5;2.387
504.0;2.635
504.5;1.696
505.0;2.669
505.5;2.694
506.0;1.314
506.5;3.623
507.0;2.85
507.5;2.877
508.0;1.28
508.5;1.024
509.0;1.126
509.5;2.141
510.0;1.162
510.5;1.428
511.0;0.81
511.5;0.998
512.0;1.229
512.5;0.827
513.0;1.382
513.5;1.313
514.0;1.688
514.5;1.548
515.0;1.845
515.5;1.784
516.0;1.312
516.5;1.936
517.0;1.995
517.5;2.349
518.0;2.259
518.5;2.276
519.0;2.035
519.5;1.931
520.0;1.308
520.5;1.821
521.0;1.894
521.5;2.492
522.0;2.272
522.5;2.213
523.0;2.691
523.5;3.001
524.0;4.322
524.5;3.883
525.0;4.656
525.5;3.597
526.0;3.623
526.5;3.307
527.0;6.176
527.5;4.026
528.0;4.795
528.5;4.778
529.0;4.707
529.5;5.59
530.0;6.059
530.5;6.793
531.0;5.192
531.5;3.378
532.0;5.599
532.5;3.067
533.0;3.595
533.5;5.537
534.0;6.503
534.5;7.015
535.0;5.346
535.5;5.656
536.0;5.927
536.5;6.055
537.0;5.688
537.5;6.446
538.0;5.944
538.5;5.812
539.0;5.229
539.5;4.295
540.0;7.262
540.5;10.5
541.0;7.578
541.5;9.741
542.0;8.486
542.5;7.272
543.0;8.641
543.5;10.489
544.0;10.598
544.5;7.066
545.0;8.078
545.5;6.912
546.0;7.097
546.5;5.86
547.0;8.642
547.5;9.291
548.0;5.027
548.5;6.953
549.0;6.06
549.5;7.779
550.0;10.938
550.5;14.915
551.0;14.278
551.5;14.136
552.0;26.494
552.5;17.62
553.0;14.088
553.5;8.25
554.0;11.029
554.5;15.883
555.0;30.977
555.5;41.031
556.0;13.354
556.5;20.011
557.0;22.517
557.5;17.928
558.0;11.084
558.5;8.478
559.0;2.552
559.5;6.436
560.0;5.665
560.5;6.986
561.0;5.305
561.5;4.263
562.0;6.352
562.5;8.338
563.0;6.772
563.5;7.518
564.0;2.746
564.5;8.061
565.0;8.89
565.5;9.938
566.0;12.566
566.5;13.99
567.0;9.94
567.5;13.39
568.0;14.393
568.5;12.688
569.0;13.879
569.5;10.066
570.0;9.12
570.5;8.474
571.0;5.745
571.5;6.672
572.0;9.857
572.5;13.175
573.0;11.877
573.5;19.154
574.0;31.122
574.5;26.491
575.0;27.278
575.5;27.341
576.0;28.06
576.5;32.137
577.0;34.228
577.5;42.646
578.0;41.879
578.5;53.68
579.0;53.815
579.5;43.552
580.0;30.775
580.5;51.965
581.0;72.468
581.5;65.283
582.0;78.991
582.5;119.826
583.0;98.95
583.5;112.705
584.0;81.249
584.5;108.257
585.0;157.678
585.5;100.919
586.0;413.957
586.5;481.453
587.0;440.896
587.5;331.202
588.0;1450.986
588.5;358.56
589.0;312.292
589.5;74.609
590.0;152.743
590.5;105.475
591.0;48.48
591.5;86.686
592.0;33.615
592.5;17.706
593.0;4.189
593.5;22.046
594.0;21.637
594.5;22.954
595.0;29.403
595.5;21.918
596.0;24.963
596.5;22.642
597.0;23.308
597.5;18.091
598.0;8.228
598.5;5.989
599.0;4.707
599.5;4.398
600.0;6.341
600.5;11.311
601.0;8.254
601.5;10.978
602.0;7.459
602.5;13.343
603.0;13.974
603.5;11.441
604.0;11.606
604.5;10.362
605.0;9.544
605.5;9.848
606.0;9.187
606.5;6.797
607.0;9.19
607.5;8.516
608.0;7.538
608.5;7.735
609.0;6.327
609.5;8.42
610.0;8.026
610.5;8.637
611.0;7.768
611.5;7.916
612.0;7.812
612.5;7.981
613.0;7.49
613.5;7.147
614.0;6.42
614.5;6.985
615.0;6.467
615.5;7.346
616.0;6.867
616.5;6.253
617.0;7.768
617.5;5.719
618.0;4.747
618.5;5.122
619.0;5.616
619.5;6.42
620.0;6.472
620.5;5.064
621.0;5.433
621.5;5.485
622.0;5.72
622.5;5.579
623.0;5.663
623.5;4.524
624.0;4.541
624.5;4.134
625.0;4.795
625.5;4.427
626.0;4.737
626.5;4.976
627.0;4.717
627.5;4.513
628.0;4.891
628.5;4.658
629.0;4.423
629.5;4.177
630.0;4.49
630.5;3.94
631.0;4.4
631.5;4.542
632.0;4.655
632.5;4.363
633.0;4.804
633.5;4.453
634.0;4.391
634.5;4.413
635.0;4.506
635.5;4.455
636.0;4.575
636.5;4.137
637.0;4.18
637.5;4.122
638.0;4.348
638.5;4.517
639.0;4.412
639.5;4.367
640.0;4.437
640.5;4.61
641.0;5.279
641.5;4.429
642.0;5.05
642.5;5.001
643.0;5.014
643.5;4.504
644.0;4.45
644.5;5.226
645.0;4.193
645.5;5.228
646.0;3.935
646.5;4.229
647.0;4.587
647.5;5.256
648.0;4.794
648.5;5.286
649.0;4.902
649.5;5.365
650.0;5.257
650.5;5.327
651.0;5.602
651.5;5.97
652.0;4.857
652.5;5.111
653.0;5.134
653.5;4.524
654.0;5.159
654.5;5.327
655.0;4.707
655.5;4.642
656.0;4.768
656.5;4.74
657.0;4.168
657.5;5.042
658.0;4.628
658.5;4.502
659.0;4.66
659.5;4.797
660.0;4.785
660.5;5.077
661.0;4.582
661.5;5.005
662.0;4.945
662.5;4.972
663.0;4.825
663.5;4.939
664.0;4.988
664.5;5.072
665.0;4.857
665.5;4.81
666.0;4.661
666.5;5.222
667.0;4.997
667.5;4.565
668.0;5.173
668.5;4.671
669.0;4.792
669.5;4.893
670.0;4.353
670.5;4.45
671.0;4.361
671.5;4.387
672.0;3.791
672.5;4.239
673.0;4.044
673.5;4.266
674.0;4.115
674.5;4.192
675.0;4.353
675.5;4.176
676.0;4.469
676.5;4.446
677.0;4.141
677.5;4.099
678.0;3.956
678.5;4.849
679.0;4.238
679.5;3.819
680.0;4.114
680.5;3.808
681.0;3.744
681.5;3.433
682.0;3.373
682.5;3.631
683.0;3.749
683.5;3.853
684.0;3.439
684.5;3.696
685.0;3.261
685.5;3.883
686.0;3.226
686.5;3.473
687.0;3.693
687.5;3.274
688.0;3.673
688.5;3.36
689.0;3.559
689.5;3.586
690.0;3.264
690.5;3.474
691.0;3.062
691.5;3.583
692.0;3.318
692.5;3.093
693.0;3.286
693.5;3.363
694.0;3.211
694.5;3.095
695.0;3.062
695.5;2.869
696.0;3.135
696.5;3.161
697.0;3.557
697.5;3.074
698.0;3.199
698.5;3.215
699.0;2.944
699.5;3.35
700.0;2.853
700.5;3.547
701.0;3.318
701.5;3.178
702.0;3.511
702.5;3.497
703.0;3.369
703.5;3.35
704.0;3.117
704.5;3.215
705.0;3.463
705.5;3.213
706.0;3.446
706.5;3.659
707.0;3.735
707.5;3.507
708.0;3.475
708.5;3.599
709.0;3.667
709.5;3.796
710.0;3.584
710.5;3.497
711.0;3.671
711.5;3.609
712.0;3.457
712.5;3.439
713.0;3.491
713.5;3.693
714.0;3.73
714.5;3.759
715.0;3.82
715.5;4.042
716.0;4.165
716.5;3.943
717.0;4.105
717.5;4.252
718.0;4.229
718.5;4.402
719.0;4.042
719.5;4.405
720.0;3.819
720.5;3.977
721.0;4.254
721.5;3.974
722.0;4.403
722.5;4.178
723.0;3.986
723.5;4.117
724.0;4.148
724.5;4.45
725.0;4.488
725.5;4.344
726.0;4.368
726.5;4.655
727.0;4.394
727.5;4.715
728.0;4.225
728.5;4.282
729.0;4.849
729.5;4.256
730.0;3.762
730.5;3.309
731.0;3.789
731.5;4.561
732.0;4.766
732.5;5.249
733.0;4.897
733.5;5.101
734.0;3.812
734.5;3.385
735.0;4.199
735.5;2.971
736.0;3.721
736.5;5.442
737.0;5.199
737.5;2.673
738.0;3.806
738.5;6.473
739.0;11.039
739.5;7.614
740.0;4.377
740.5;3.82
741.0;3.961
741.5;3.798
742.0;3.873
742.5;3.346
743.0;3.484
743.5;4.063
744.0;3.904
744.5;3.972
745.0;3.836
745.5;3.94
746.0;4.115
746.5;4.297
747.0;4.525
747.5;3.977
748.0;3.65
748.5;3.626
749.0;3.908
749.5;3.67
750.0;3.886
750.5;3.899
751.0;3.778
751.5;3.39
752.0;3.51
752.5;3.233
753.0;3.083
753.5;2.356
754.0;2.713
754.5;3.182
755.0;2.755
755.5;2.065
756.0;2.864
756.5;2.427
757.0;2.09
757.5;1.246
758.0;0.896
758.5;1.501
759.0;1.31
759.5;2.181
760.0;2.518
760.5;3.747
761.0;4.096
761.5;5.101
762.0;5.905
762.5;6.443
763.0;6.364
763.5;7.211
764.0;7.548
764.5;8.031
765.0;7.765
765.5;7.881
766.0;7.255
766.5;6.409
767.0;6.803
767.5;6.543
768.0;5.327
768.5;4.243
769.0;3.024
769.5;1.809
770.0;3.058
770.5;6.552
771.0;5.846
771.5;6.376
772.0;7.198
772.5;7.731
773.0;9.618
773.5;12.917
774.0;6.674
774.5;5.306
775.0;15.081
775.5;10.059
776.0;16.312
776.5;21.662
777.0;20.929
777.5;10.583
778.0;16.57
778.5;15.946
779.0;17.698
779.5;17.495
780.0;18.726
780.5;26.594
781.0;27.55
781.5;22.927
782.0;60.518
782.5;69.978
783.0;61.054
783.5;84.888
784.0;188.227
784.5;21.159
785.0;51.601
785.5;15.08
786.0;30.317
786.5;22.109
787.0;20.951
787.5;18.582
788.0;17.048
788.5;5.786
789.0;4.272
789.5;4.363
790.0;3.566
790.5;2.906
791.0;2.062
791.5;3.413
792.0;3.56
792.5;0.345
793.0;5.034
793.5;2.662
794.0;3.532
794.5;3.911
795.0;2.419
795.5;0.847
796.0;0.931
796.5;0.317
797.0;3.176
797.5;5.072
798.0;4.712
798.5;2.4
799.0;3.243
799.5;5.466
800.0;5.027
800.5;4.537
801.0;5.757
801.5;4.157
802.0;4.709
802.5;4.22
803.0;2.413
803.5;3.26
804.0;2.475
804.5;1.756
805.0;2.565
805.5;2.877
806.0;1.59
806.5;2.978
807.0;2.378
807.5;2.828
808.0;2.835
808.5;2.922
809.0;3.022
809.5;2.884
810.0;2.168
810.5;2.051
811.0;0.972
811.5;2.523
812.0;1.595
812.5;1.49
813.0;1.939
813.5;1.461
814.0;1.525
814.5;3.157
815.0;2.148
815.5;2.939
816.0;1.019
816.5;1.383
817.0;2.129
817.5;2.081
818.0;1.9
818.5;2.131
819.0;2.336
819.5;2.166
820.0;2.562
820.5;2.356
821.0;3.348
821.5;2.584
822.0;1.996
822.5;1.942
823.0;2.561
823.5;2.346
824.0;2.792
824.5;3.301
